Elapsed Time,EMG,Ch2,CH3,
00:00:00,8.58306884765625E-05,-0.00171661376953125,0.000457763671875,
00:00:00.004,8.0108642578125E-05,-0.00170516967773438,0.000423431396484375,
00:00:00.008,8.58306884765625E-05,-0.00171661376953125,0.000400543212890625,
00:00:00.012,8.0108642578125E-05,-0.00170516967773438,0.000377655029296875,
00:00:00.016,7.43865966796875E-05,-0.00169944763183594,0.0004119873046875,
00:00:00.02,8.0108642578125E-05,-0.00170516967773438,0.000394821166992188,
00:00:00.024,7.43865966796875E-05,-0.00170516967773438,0.000383377075195313,
00:00:00.028,8.0108642578125E-05,-0.00171089172363281,0.00043487548828125,
00:00:00.032,8.0108642578125E-05,-0.00169944763183594,0.000406265258789063,
00:00:00.036,8.0108642578125E-05,-0.00169944763183594,0.000360488891601563,
00:00:00.04,8.0108642578125E-05,-0.00171089172363281,0.000360488891601563,
00:00:00.044,8.0108642578125E-05,-0.00171089172363281,0.000377655029296875,
00:00:00.048,8.58306884765625E-05,-0.00170516967773438,0.000406265258789063,
00:00:00.052,8.0108642578125E-05,-0.00169944763183594,0.000406265258789063,
00:00:00.056,8.0108642578125E-05,-0.00171089172363281,0.00038909912109375,
00:00:00.06,8.0108642578125E-05,-0.00171661376953125,0.000383377075195313,
00:00:00.064,8.58306884765625E-05,-0.00170516967773438,0.000394821166992188,
00:00:00.068,9.1552734375E-05,-0.00171089172363281,0.000452041625976563,
00:00:00.072,8.58306884765625E-05,-0.00171089172363281,0.0004119873046875,
00:00:00.076,8.0108642578125E-05,-0.00171089172363281,0.00038909912109375,
00:00:00.08,8.58306884765625E-05,-0.00170516967773438,0.0004119873046875,
00:00:00.084,8.0108642578125E-05,-0.0016937255859375,0.000423431396484375,
00:00:00.088,7.43865966796875E-05,-0.00170516967773438,0.000400543212890625,
00:00:00.092,8.0108642578125E-05,-0.00171089172363281,0.00038909912109375,
00:00:00.096,8.58306884765625E-05,-0.00171089172363281,0.0004119873046875,
00:00:00.1,8.0108642578125E-05,-0.00169944763183594,0.000394821166992188,
00:00:00.104,8.0108642578125E-05,-0.00170516967773438,0.00038909912109375,
00:00:00.108,8.58306884765625E-05,-0.00171661376953125,0.0004119873046875,
00:00:00.112,8.58306884765625E-05,-0.00171089172363281,0.000423431396484375,
00:00:00.116,8.0108642578125E-05,-0.00169944763183594,0.000429153442382813,
00:00:00.12,8.0108642578125E-05,-0.00169944763183594,0.000400543212890625,
00:00:00.124,8.0108642578125E-05,-0.00171089172363281,0.000377655029296875,
00:00:00.128,8.0108642578125E-05,-0.00171089172363281,0.000394821166992188,
00:00:00.132,8.0108642578125E-05,-0.00169944763183594,0.000423431396484375,
00:00:00.136,8.0108642578125E-05,-0.00169944763183594,0.000423431396484375,
00:00:00.14,8.0108642578125E-05,-0.00171089172363281,0.000406265258789063,
00:00:00.144,8.0108642578125E-05,-0.00171089172363281,0.00038909912109375,
00:00:00.148,8.0108642578125E-05,-0.00169944763183594,0.000423431396484375,
00:00:00.152,8.0108642578125E-05,-0.00169944763183594,0.00043487548828125,
00:00:00.156,8.58306884765625E-05,-0.00171089172363281,0.000417709350585938,
00:00:00.16,9.72747802734375E-05,-0.00172805786132813,0.000452041625976563,
00:00:00.164,9.1552734375E-05,-0.00171661376953125,0.000463485717773438,
00:00:00.168,8.0108642578125E-05,-0.00169944763183594,0.000423431396484375,
00:00:00.172,6.866455078125E-05,-0.0016937255859375,0.0003662109375,
00:00:00.176,6.866455078125E-05,-0.00169944763183594,0.00034332275390625,
00:00:00.18,8.0108642578125E-05,-0.00170516967773438,0.00043487548828125,
00:00:00.184,8.58306884765625E-05,-0.00169944763183594,0.000440597534179688,
00:00:00.188,8.0108642578125E-05,-0.00169944763183594,0.00038909912109375,
00:00:00.192,8.0108642578125E-05,-0.00170516967773438,0.00038909912109375,
00:00:00.196,8.58306884765625E-05,-0.00171089172363281,0.000429153442382813,
00:00:00.2,8.0108642578125E-05,-0.00169944763183594,0.0004119873046875,
00:00:00.204,8.0108642578125E-05,-0.00169944763183594,0.000400543212890625,
00:00:00.208,8.0108642578125E-05,-0.00171089172363281,0.000394821166992188,
00:00:00.212,8.0108642578125E-05,-0.00170516967773438,0.000446319580078125,
00:00:00.216,8.0108642578125E-05,-0.00169944763183594,0.000497817993164063,
00:00:00.22,7.43865966796875E-05,-0.00169944763183594,0.00038909912109375,
00:00:00.224,8.58306884765625E-05,-0.00171089172363281,0.000354766845703125,
00:00:00.228,8.0108642578125E-05,-0.00171089172363281,0.00038909912109375,
00:00:00.232,8.0108642578125E-05,-0.00169944763183594,0.000429153442382813,
00:00:00.236,8.0108642578125E-05,-0.00169944763183594,0.00043487548828125,
00:00:00.24,8.0108642578125E-05,-0.00171089172363281,0.000406265258789063,
00:00:00.244,8.0108642578125E-05,-0.00170516967773438,0.00038909912109375,
00:00:00.248,8.0108642578125E-05,-0.00169944763183594,0.00043487548828125,
00:00:00.252,8.0108642578125E-05,-0.00169944763183594,0.000452041625976563,
00:00:00.256,8.58306884765625E-05,-0.00171661376953125,0.000492095947265625,
00:00:00.26,8.58306884765625E-05,-0.00171661376953125,0.000429153442382813,
00:00:00.264,7.43865966796875E-05,-0.0016937255859375,0.000377655029296875,
00:00:00.268,7.43865966796875E-05,-0.00168800354003906,0.000394821166992188,
00:00:00.272,8.0108642578125E-05,-0.00170516967773438,0.000394821166992188,
00:00:00.276,8.0108642578125E-05,-0.00171089172363281,0.00038909912109375,
00:00:00.28,8.0108642578125E-05,-0.00170516967773438,0.000400543212890625,
00:00:00.284,9.1552734375E-05,-0.00171661376953125,0.00048065185546875,
00:00:00.288,8.0108642578125E-05,-0.00171089172363281,0.000463485717773438,
00:00:00.292,7.43865966796875E-05,-0.00170516967773438,0.00038909912109375,
00:00:00.296,7.43865966796875E-05,-0.00169944763183594,0.000394821166992188,
00:00:00.3,7.43865966796875E-05,-0.0016937255859375,0.000440597534179688,
00:00:00.304,8.0108642578125E-05,-0.00170516967773438,0.000452041625976563,
00:00:00.308,7.43865966796875E-05,-0.00171089172363281,0.000400543212890625,
00:00:00.312,8.0108642578125E-05,-0.00170516967773438,0.00038909912109375,
00:00:00.316,8.0108642578125E-05,-0.00169944763183594,0.0004119873046875,
00:00:00.32,8.0108642578125E-05,-0.00169944763183594,0.0004119873046875,
00:00:00.324,8.0108642578125E-05,-0.00171089172363281,0.000394821166992188,
00:00:00.328,8.0108642578125E-05,-0.00171089172363281,0.000417709350585938,
00:00:00.332,8.58306884765625E-05,-0.00170516967773438,0.000469207763671875,
00:00:00.336,8.0108642578125E-05,-0.00170516967773438,0.000469207763671875,
00:00:00.34,8.0108642578125E-05,-0.00171089172363281,0.000406265258789063,
00:00:00.344,7.43865966796875E-05,-0.00170516967773438,0.000371932983398438,
00:00:00.348,7.43865966796875E-05,-0.00169944763183594,0.000452041625976563,
00:00:00.352,8.58306884765625E-05,-0.00171089172363281,0.000417709350585938,
00:00:00.356,8.0108642578125E-05,-0.00170516967773438,0.000331878662109375,
00:00:00.36,7.43865966796875E-05,-0.00171089172363281,0.000377655029296875,
00:00:00.364,7.43865966796875E-05,-0.00169944763183594,0.00043487548828125,
00:00:00.368,7.43865966796875E-05,-0.00169944763183594,0.000446319580078125,
00:00:00.372,8.0108642578125E-05,-0.00171089172363281,0.000474929809570313,
00:00:00.376,8.0108642578125E-05,-0.00171089172363281,0.000417709350585938,
00:00:00.38,8.0108642578125E-05,-0.00170516967773438,0.00038909912109375,
00:00:00.384,8.0108642578125E-05,-0.00170516967773438,0.000429153442382813,
00:00:00.388,8.0108642578125E-05,-0.00170516967773438,0.000406265258789063,
00:00:00.392,8.0108642578125E-05,-0.00171661376953125,0.000417709350585938,
00:00:00.396,8.0108642578125E-05,-0.00170516967773438,0.000446319580078125,
00:00:00.4,8.0108642578125E-05,-0.00169944763183594,0.000429153442382813,
00:00:00.404,8.58306884765625E-05,-0.00171089172363281,0.000400543212890625,
00:00:00.408,8.58306884765625E-05,-0.00172233581542969,0.000417709350585938,
00:00:00.412,8.58306884765625E-05,-0.00171661376953125,0.000446319580078125,
00:00:00.416,8.58306884765625E-05,-0.00170516967773438,0.000446319580078125,
00:00:00.42,8.0108642578125E-05,-0.00169944763183594,0.0004119873046875,
00:00:00.424,8.0108642578125E-05,-0.00171089172363281,0.0004119873046875,
00:00:00.428,7.43865966796875E-05,-0.00171089172363281,0.000423431396484375,
00:00:00.432,8.0108642578125E-05,-0.00169944763183594,0.000423431396484375,
00:00:00.436,8.0108642578125E-05,-0.00169944763183594,0.000423431396484375,
00:00:00.44,8.0108642578125E-05,-0.00171089172363281,0.000446319580078125,
00:00:00.444,8.0108642578125E-05,-0.00171089172363281,0.0004119873046875,
00:00:00.448,8.0108642578125E-05,-0.00170516967773438,0.0004119873046875,
00:00:00.452,8.0108642578125E-05,-0.00170516967773438,0.000440597534179688,
00:00:00.456,8.58306884765625E-05,-0.00171661376953125,0.000452041625976563,
00:00:00.46,8.58306884765625E-05,-0.00171661376953125,0.000440597534179688,
00:00:00.464,8.0108642578125E-05,-0.00169944763183594,0.000394821166992188,
00:00:00.468,8.0108642578125E-05,-0.00169944763183594,0.000423431396484375,
00:00:00.472,7.43865966796875E-05,-0.00170516967773438,0.000394821166992188,
00:00:00.476,8.0108642578125E-05,-0.00171661376953125,0.000394821166992188,
00:00:00.48,8.58306884765625E-05,-0.00171089172363281,0.00038909912109375,
00:00:00.484,9.1552734375E-05,-0.00171661376953125,0.000457763671875,
00:00:00.488,8.58306884765625E-05,-0.00171661376953125,0.000474929809570313,
00:00:00.492,8.0108642578125E-05,-0.00171089172363281,0.000400543212890625,
00:00:00.496,8.0108642578125E-05,-0.00170516967773438,0.000417709350585938,
00:00:00.5,8.58306884765625E-05,-0.00170516967773438,0.000446319580078125,
00:00:00.504,8.0108642578125E-05,-0.00170516967773438,0.000440597534179688,
00:00:00.508,9.1552734375E-05,-0.00172233581542969,0.000463485717773438,
00:00:00.512,8.58306884765625E-05,-0.00171089172363281,0.000417709350585938,
00:00:00.516,8.0108642578125E-05,-0.00170516967773438,0.00043487548828125,
00:00:00.52,8.58306884765625E-05,-0.00170516967773438,0.000423431396484375,
00:00:00.524,8.58306884765625E-05,-0.00171661376953125,0.000400543212890625,
00:00:00.528,8.58306884765625E-05,-0.00171661376953125,0.000417709350585938,
00:00:00.532,8.58306884765625E-05,-0.00170516967773438,0.000446319580078125,
00:00:00.536,8.58306884765625E-05,-0.00170516967773438,0.000469207763671875,
00:00:00.54,8.58306884765625E-05,-0.00171661376953125,0.000446319580078125,
00:00:00.544,9.1552734375E-05,-0.00172233581542969,0.00043487548828125,
00:00:00.548,8.58306884765625E-05,-0.00170516967773438,0.0004119873046875,
00:00:00.552,8.58306884765625E-05,-0.00170516967773438,0.00043487548828125,
00:00:00.556,9.1552734375E-05,-0.00171661376953125,0.000400543212890625,
00:00:00.56,8.0108642578125E-05,-0.00171089172363281,0.000371932983398438,
00:00:00.564,9.1552734375E-05,-0.00171089172363281,0.000429153442382813,
00:00:00.568,9.1552734375E-05,-0.00171089172363281,0.000452041625976563,
00:00:00.572,8.0108642578125E-05,-0.00171089172363281,0.000406265258789063,
00:00:00.576,9.1552734375E-05,-0.00172233581542969,0.00043487548828125,
00:00:00.58,9.1552734375E-05,-0.00171661376953125,0.00048065185546875,
00:00:00.584,8.58306884765625E-05,-0.00169944763183594,0.000452041625976563,
00:00:00.588,8.0108642578125E-05,-0.00169944763183594,0.000417709350585938,
00:00:00.592,8.0108642578125E-05,-0.00171089172363281,0.00038909912109375,
00:00:00.596,8.0108642578125E-05,-0.00170516967773438,0.000423431396484375,
00:00:00.6,8.58306884765625E-05,-0.00170516967773438,0.000463485717773438,
00:00:00.604,9.1552734375E-05,-0.00171089172363281,0.000429153442382813,
00:00:00.608,8.0108642578125E-05,-0.00171089172363281,0.00038909912109375,
00:00:00.612,8.58306884765625E-05,-0.00171089172363281,0.000440597534179688,
00:00:00.616,8.58306884765625E-05,-0.00169944763183594,0.000429153442382813,
00:00:00.62,8.58306884765625E-05,-0.00170516967773438,0.000429153442382813,
00:00:00.624,8.58306884765625E-05,-0.00171661376953125,0.000446319580078125,
00:00:00.628,8.58306884765625E-05,-0.00171089172363281,0.00043487548828125,
00:00:00.632,8.58306884765625E-05,-0.00169944763183594,0.0004119873046875,
00:00:00.636,8.58306884765625E-05,-0.00170516967773438,0.000417709350585938,
00:00:00.64,8.58306884765625E-05,-0.00171661376953125,0.000394821166992188,
00:00:00.644,9.1552734375E-05,-0.00172233581542969,0.000446319580078125,
00:00:00.648,8.58306884765625E-05,-0.00170516967773438,0.00048065185546875,
00:00:00.652,8.58306884765625E-05,-0.00170516967773438,0.00043487548828125,
00:00:00.656,8.58306884765625E-05,-0.00171089172363281,0.000400543212890625,
00:00:00.66,8.0108642578125E-05,-0.00171089172363281,0.000400543212890625,
00:00:00.664,8.0108642578125E-05,-0.00170516967773438,0.000457763671875,
00:00:00.668,8.58306884765625E-05,-0.00169944763183594,0.000474929809570313,
00:00:00.672,8.58306884765625E-05,-0.00170516967773438,0.000406265258789063,
00:00:00.676,8.58306884765625E-05,-0.00171089172363281,0.000377655029296875,
00:00:00.68,8.58306884765625E-05,-0.00170516967773438,0.000417709350585938,
00:00:00.684,9.72747802734375E-05,-0.00171661376953125,0.000463485717773438,
00:00:00.688,9.72747802734375E-05,-0.00172805786132813,0.000474929809570313,
00:00:00.692,7.43865966796875E-05,-0.00170516967773438,0.000371932983398438,
00:00:00.696,8.0108642578125E-05,-0.00170516967773438,0.000417709350585938,
00:00:00.7,8.58306884765625E-05,-0.00169944763183594,0.000469207763671875,
00:00:00.704,8.0108642578125E-05,-0.00169944763183594,0.00043487548828125,
00:00:00.708,8.0108642578125E-05,-0.00170516967773438,0.000377655029296875,
00:00:00.712,8.0108642578125E-05,-0.00170516967773438,0.0004119873046875,
00:00:00.716,8.0108642578125E-05,-0.00169944763183594,0.000452041625976563,
00:00:00.72,8.58306884765625E-05,-0.00170516967773438,0.000446319580078125,
00:00:00.724,8.0108642578125E-05,-0.00171089172363281,0.000383377075195313,
00:00:00.728,8.0108642578125E-05,-0.00171089172363281,0.0004119873046875,
00:00:00.732,8.0108642578125E-05,-0.00169944763183594,0.000469207763671875,
00:00:00.736,8.0108642578125E-05,-0.00169944763183594,0.000457763671875,
00:00:00.74,8.0108642578125E-05,-0.00170516967773438,0.00038909912109375,
00:00:00.744,8.0108642578125E-05,-0.00171089172363281,0.00038909912109375,
00:00:00.748,8.0108642578125E-05,-0.00169944763183594,0.000429153442382813,
00:00:00.752,8.0108642578125E-05,-0.00169944763183594,0.000429153442382813,
00:00:00.756,8.0108642578125E-05,-0.00171089172363281,0.000423431396484375,
00:00:00.76,8.0108642578125E-05,-0.00171089172363281,0.000417709350585938,
00:00:00.764,8.0108642578125E-05,-0.00169944763183594,0.00043487548828125,
00:00:00.768,8.0108642578125E-05,-0.00169944763183594,0.000440597534179688,
00:00:00.772,8.0108642578125E-05,-0.00170516967773438,0.000423431396484375,
00:00:00.776,8.58306884765625E-05,-0.00171089172363281,0.000423431396484375,
00:00:00.78,8.58306884765625E-05,-0.00171089172363281,0.000440597534179688,
00:00:00.784,9.72747802734375E-05,-0.00171661376953125,0.000474929809570313,
00:00:00.788,8.0108642578125E-05,-0.00170516967773438,0.000429153442382813,
00:00:00.792,7.43865966796875E-05,-0.00170516967773438,0.00043487548828125,
00:00:00.796,8.0108642578125E-05,-0.00169944763183594,0.000429153442382813,
00:00:00.8,8.58306884765625E-05,-0.00169944763183594,0.000446319580078125,
00:00:00.804,8.0108642578125E-05,-0.00170516967773438,0.000429153442382813,
00:00:00.808,8.58306884765625E-05,-0.00171089172363281,0.0004119873046875,
00:00:00.812,7.43865966796875E-05,-0.00169944763183594,0.000429153442382813,
00:00:00.816,8.0108642578125E-05,-0.0016937255859375,0.000446319580078125,
00:00:00.82,8.0108642578125E-05,-0.0016937255859375,0.000423431396484375,
00:00:00.824,8.0108642578125E-05,-0.00171089172363281,0.000400543212890625,
00:00:00.828,8.58306884765625E-05,-0.00171089172363281,0.00048065185546875,
00:00:00.832,8.0108642578125E-05,-0.0016937255859375,0.000509262084960938,
00:00:00.836,8.0108642578125E-05,-0.00169944763183594,0.00043487548828125,
00:00:00.84,7.43865966796875E-05,-0.00169944763183594,0.000377655029296875,
00:00:00.844,8.0108642578125E-05,-0.00170516967773438,0.0004119873046875,
00:00:00.848,8.0108642578125E-05,-0.00169944763183594,0.000457763671875,
00:00:00.852,8.58306884765625E-05,-0.00170516967773438,0.000457763671875,
00:00:00.856,7.43865966796875E-05,-0.00169944763183594,0.000406265258789063,
00:00:00.86,6.866455078125E-05,-0.0016937255859375,0.000400543212890625,
00:00:00.864,7.43865966796875E-05,-0.0016937255859375,0.000440597534179688,
00:00:00.868,8.58306884765625E-05,-0.0016937255859375,0.000457763671875,
00:00:00.872,8.0108642578125E-05,-0.00169944763183594,0.000423431396484375,
00:00:00.876,8.0108642578125E-05,-0.00170516967773438,0.000406265258789063,
00:00:00.88,8.0108642578125E-05,-0.00169944763183594,0.000452041625976563,
00:00:00.884,8.58306884765625E-05,-0.00169944763183594,0.000474929809570313,
00:00:00.888,8.0108642578125E-05,-0.00169944763183594,0.000457763671875,
00:00:00.892,8.0108642578125E-05,-0.00170516967773438,0.000440597534179688,
00:00:00.896,7.43865966796875E-05,-0.0016937255859375,0.000429153442382813,
00:00:00.9,8.0108642578125E-05,-0.00168800354003906,0.000457763671875,
00:00:00.904,7.43865966796875E-05,-0.0016937255859375,0.000446319580078125,
00:00:00.908,8.0108642578125E-05,-0.00170516967773438,0.000423431396484375,
00:00:00.912,8.0108642578125E-05,-0.00169944763183594,0.000440597534179688,
00:00:00.916,8.58306884765625E-05,-0.00169944763183594,0.000486373901367188,
00:00:00.92,8.58306884765625E-05,-0.00170516967773438,0.000497817993164063,
00:00:00.924,8.58306884765625E-05,-0.00171089172363281,0.000429153442382813,
00:00:00.928,8.0108642578125E-05,-0.00170516967773438,0.000423431396484375,
00:00:00.932,7.43865966796875E-05,-0.00168228149414063,0.000429153442382813,
00:00:00.936,7.43865966796875E-05,-0.00168800354003906,0.00043487548828125,
00:00:00.94,7.43865966796875E-05,-0.00169944763183594,0.000423431396484375,
00:00:00.944,7.43865966796875E-05,-0.00169944763183594,0.000429153442382813,
00:00:00.948,8.0108642578125E-05,-0.00168800354003906,0.000452041625976563,
00:00:00.952,8.0108642578125E-05,-0.00168800354003906,0.000463485717773438,
00:00:00.956,8.0108642578125E-05,-0.00169944763183594,0.000429153442382813,
00:00:00.96,8.0108642578125E-05,-0.00170516967773438,0.000423431396484375,
00:00:00.964,7.43865966796875E-05,-0.00168800354003906,0.000452041625976563,
00:00:00.968,7.43865966796875E-05,-0.00168800354003906,0.000469207763671875,
00:00:00.972,7.43865966796875E-05,-0.00169944763183594,0.000457763671875,
00:00:00.976,7.43865966796875E-05,-0.00169944763183594,0.000463485717773438,
00:00:00.98,7.43865966796875E-05,-0.0016937255859375,0.000440597534179688,
00:00:00.984,8.0108642578125E-05,-0.0016937255859375,0.000452041625976563,
00:00:00.988,8.0108642578125E-05,-0.0016937255859375,0.000446319580078125,
00:00:00.992,7.43865966796875E-05,-0.00170516967773438,0.000452041625976563,
00:00:00.996,8.0108642578125E-05,-0.0016937255859375,0.000440597534179688,
00:00:01,7.43865966796875E-05,-0.00168228149414063,0.000474929809570313,
00:00:01.004,8.0108642578125E-05,-0.00169944763183594,0.000497817993164063,
00:00:01.008,7.43865966796875E-05,-0.00169944763183594,0.00038909912109375,
00:00:01.012,6.866455078125E-05,-0.00168800354003906,0.000406265258789063,
00:00:01.016,7.43865966796875E-05,-0.00168228149414063,0.000440597534179688,
00:00:01.02,7.43865966796875E-05,-0.00168800354003906,0.000446319580078125,
00:00:01.024,7.43865966796875E-05,-0.00169944763183594,0.000423431396484375,
00:00:01.028,7.43865966796875E-05,-0.0016937255859375,0.000429153442382813,
00:00:01.032,7.43865966796875E-05,-0.00168800354003906,0.000457763671875,
00:00:01.036,7.43865966796875E-05,-0.00168800354003906,0.000440597534179688,
00:00:01.04,7.43865966796875E-05,-0.00169944763183594,0.00038909912109375,
00:00:01.044,8.0108642578125E-05,-0.00171089172363281,0.000463485717773438,
00:00:01.048,8.0108642578125E-05,-0.00169944763183594,0.000520706176757813,
00:00:01.052,6.866455078125E-05,-0.00167655944824219,0.000452041625976563,
00:00:01.056,6.29425048828125E-05,-0.00168228149414063,0.000423431396484375,
00:00:01.06,6.866455078125E-05,-0.0016937255859375,0.000452041625976563,
00:00:01.064,7.43865966796875E-05,-0.00168800354003906,0.000457763671875,
00:00:01.068,7.43865966796875E-05,-0.00168228149414063,0.000440597534179688,
00:00:01.072,7.43865966796875E-05,-0.0016937255859375,0.00043487548828125,
00:00:01.076,7.43865966796875E-05,-0.00169944763183594,0.000440597534179688,
00:00:01.08,6.866455078125E-05,-0.00168800354003906,0.000457763671875,
00:00:01.084,6.866455078125E-05,-0.00167655944824219,0.000440597534179688,
00:00:01.088,6.866455078125E-05,-0.00168800354003906,0.000440597534179688,
00:00:01.092,6.866455078125E-05,-0.0016937255859375,0.000423431396484375,
00:00:01.096,6.866455078125E-05,-0.00168800354003906,0.00043487548828125,
00:00:01.1,6.866455078125E-05,-0.00168228149414063,0.000463485717773438,
00:00:01.104,6.866455078125E-05,-0.00168800354003906,0.00048065185546875,
00:00:01.108,6.866455078125E-05,-0.00169944763183594,0.000474929809570313,
00:00:01.112,6.866455078125E-05,-0.00169944763183594,0.000532150268554688,
00:00:01.116,7.43865966796875E-05,-0.00168800354003906,0.0005035400390625,
00:00:01.12,6.866455078125E-05,-0.00168228149414063,0.00038909912109375,
00:00:01.124,6.866455078125E-05,-0.0016937255859375,0.000326156616210938,
00:00:01.128,8.0108642578125E-05,-0.00170516967773438,0.000457763671875,
00:00:01.132,6.866455078125E-05,-0.00168228149414063,0.000497817993164063,
00:00:01.136,6.29425048828125E-05,-0.00167655944824219,0.000440597534179688,
00:00:01.14,6.29425048828125E-05,-0.00168800354003906,0.000400543212890625,
00:00:01.144,6.866455078125E-05,-0.0016937255859375,0.0004119873046875,
00:00:01.148,6.866455078125E-05,-0.00168228149414063,0.000457763671875,
00:00:01.152,6.29425048828125E-05,-0.00167655944824219,0.000457763671875,
00:00:01.156,6.29425048828125E-05,-0.00168800354003906,0.000423431396484375,
00:00:01.16,6.29425048828125E-05,-0.0016937255859375,0.000417709350585938,
00:00:01.164,6.29425048828125E-05,-0.00168228149414063,0.000452041625976563,
00:00:01.168,6.866455078125E-05,-0.00168228149414063,0.000463485717773438,
00:00:01.172,6.29425048828125E-05,-0.00168800354003906,0.00043487548828125,
00:00:01.176,6.29425048828125E-05,-0.0016937255859375,0.000423431396484375,
00:00:01.18,6.866455078125E-05,-0.00168800354003906,0.000452041625976563,
00:00:01.184,6.866455078125E-05,-0.00168228149414063,0.000474929809570313,
00:00:01.188,6.866455078125E-05,-0.0016937255859375,0.000474929809570313,
00:00:01.192,6.29425048828125E-05,-0.0016937255859375,0.000440597534179688,
00:00:01.196,6.29425048828125E-05,-0.00168228149414063,0.000457763671875,
00:00:01.2,6.866455078125E-05,-0.00168228149414063,0.000457763671875,
00:00:01.204,6.866455078125E-05,-0.00168228149414063,0.00043487548828125,
00:00:01.208,6.29425048828125E-05,-0.00168800354003906,0.000492095947265625,
00:00:01.212,6.29425048828125E-05,-0.00168800354003906,0.000532150268554688,
00:00:01.216,6.29425048828125E-05,-0.00167655944824219,0.000452041625976563,
00:00:01.22,7.43865966796875E-05,-0.0016937255859375,0.000509262084960938,
00:00:01.224,6.866455078125E-05,-0.00169944763183594,0.000463485717773438,
00:00:01.228,5.7220458984375E-05,-0.00167083740234375,0.000291824340820313,
00:00:01.232,6.29425048828125E-05,-0.00167655944824219,0.000406265258789063,
00:00:01.236,7.43865966796875E-05,-0.00168800354003906,0.000474929809570313,
00:00:01.24,6.29425048828125E-05,-0.00168800354003906,0.000457763671875,
00:00:01.244,6.29425048828125E-05,-0.00168800354003906,0.0004119873046875,
00:00:01.248,6.29425048828125E-05,-0.00167655944824219,0.000429153442382813,
00:00:01.252,5.7220458984375E-05,-0.00167083740234375,0.000446319580078125,
00:00:01.256,6.29425048828125E-05,-0.00168228149414063,0.000423431396484375,
00:00:01.26,6.29425048828125E-05,-0.00168228149414063,0.0004119873046875,
00:00:01.264,6.29425048828125E-05,-0.00167655944824219,0.000457763671875,
00:00:01.268,6.29425048828125E-05,-0.00167655944824219,0.000463485717773438,
00:00:01.272,6.29425048828125E-05,-0.00168228149414063,0.000440597534179688,
00:00:01.276,6.29425048828125E-05,-0.00168800354003906,0.000440597534179688,
00:00:01.28,6.29425048828125E-05,-0.00168228149414063,0.000486373901367188,
00:00:01.284,6.29425048828125E-05,-0.00167655944824219,0.000463485717773438,
00:00:01.288,6.29425048828125E-05,-0.00168228149414063,0.00043487548828125,
00:00:01.292,6.29425048828125E-05,-0.00168800354003906,0.000429153442382813,
00:00:01.296,6.29425048828125E-05,-0.00168800354003906,0.000457763671875,
00:00:01.3,6.29425048828125E-05,-0.00167655944824219,0.000457763671875,
00:00:01.304,6.29425048828125E-05,-0.00168228149414063,0.000446319580078125,
00:00:01.308,6.29425048828125E-05,-0.00168800354003906,0.000440597534179688,
00:00:01.312,6.29425048828125E-05,-0.00168800354003906,0.000469207763671875,
00:00:01.316,6.29425048828125E-05,-0.00167655944824219,0.000492095947265625,
00:00:01.32,6.29425048828125E-05,-0.00168228149414063,0.000474929809570313,
00:00:01.324,6.29425048828125E-05,-0.00168800354003906,0.000440597534179688,
00:00:01.328,5.7220458984375E-05,-0.00168228149414063,0.0004119873046875,
00:00:01.332,6.29425048828125E-05,-0.00167655944824219,0.000457763671875,
00:00:01.336,6.866455078125E-05,-0.00168800354003906,0.000486373901367188,
00:00:01.34,6.29425048828125E-05,-0.00168800354003906,0.0004119873046875,
00:00:01.344,6.866455078125E-05,-0.0016937255859375,0.000423431396484375,
00:00:01.348,5.7220458984375E-05,-0.00167083740234375,0.000492095947265625,
00:00:01.352,6.29425048828125E-05,-0.00168228149414063,0.000566482543945313,
00:00:01.356,6.29425048828125E-05,-0.00168800354003906,0.00054931640625,
00:00:01.36,5.7220458984375E-05,-0.00167655944824219,0.000354766845703125,
00:00:01.364,6.29425048828125E-05,-0.00167655944824219,0.000394821166992188,
00:00:01.368,6.29425048828125E-05,-0.00167655944824219,0.000440597534179688,
00:00:01.372,5.7220458984375E-05,-0.00167655944824219,0.000406265258789063,
00:00:01.376,5.7220458984375E-05,-0.00168228149414063,0.000446319580078125,
00:00:01.38,6.29425048828125E-05,-0.00168228149414063,0.000469207763671875,
00:00:01.384,6.29425048828125E-05,-0.00167083740234375,0.00043487548828125,
00:00:01.388,6.29425048828125E-05,-0.00167655944824219,0.000440597534179688,
00:00:01.392,6.29425048828125E-05,-0.00168800354003906,0.000417709350585938,
00:00:01.396,6.29425048828125E-05,-0.00168228149414063,0.000440597534179688,
00:00:01.4,6.29425048828125E-05,-0.00167083740234375,0.000474929809570313,
00:00:01.404,6.29425048828125E-05,-0.00167655944824219,0.000452041625976563,
00:00:01.408,6.29425048828125E-05,-0.00168800354003906,0.00043487548828125,
00:00:01.412,6.866455078125E-05,-0.00168800354003906,0.000457763671875,
00:00:01.416,7.43865966796875E-05,-0.00168800354003906,0.0005035400390625,
00:00:01.42,5.7220458984375E-05,-0.00167083740234375,0.000446319580078125,
00:00:01.424,5.7220458984375E-05,-0.00167655944824219,0.000417709350585938,
00:00:01.428,6.29425048828125E-05,-0.00168228149414063,0.000446319580078125,
00:00:01.432,6.866455078125E-05,-0.00167655944824219,0.0005035400390625,
00:00:01.436,6.29425048828125E-05,-0.00167655944824219,0.000469207763671875,
00:00:01.44,6.866455078125E-05,-0.0016937255859375,0.000452041625976563,
00:00:01.444,7.43865966796875E-05,-0.00169944763183594,0.000469207763671875,
00:00:01.448,5.7220458984375E-05,-0.00167083740234375,0.000446319580078125,
00:00:01.452,5.7220458984375E-05,-0.00166511535644531,0.000446319580078125,
00:00:01.456,5.7220458984375E-05,-0.00167655944824219,0.0004119873046875,
00:00:01.46,6.29425048828125E-05,-0.00168228149414063,0.000423431396484375,
00:00:01.464,6.29425048828125E-05,-0.00167655944824219,0.000457763671875,
00:00:01.468,6.29425048828125E-05,-0.00167083740234375,0.000474929809570313,
00:00:01.472,6.29425048828125E-05,-0.00168228149414063,0.000457763671875,
00:00:01.476,6.29425048828125E-05,-0.00168800354003906,0.000440597534179688,
00:00:01.48,6.29425048828125E-05,-0.00168228149414063,0.000532150268554688,
00:00:01.484,6.29425048828125E-05,-0.00167655944824219,0.000497817993164063,
00:00:01.488,6.29425048828125E-05,-0.00167655944824219,0.000394821166992188,
00:00:01.492,5.7220458984375E-05,-0.00168228149414063,0.000394821166992188,
00:00:01.496,6.29425048828125E-05,-0.00167655944824219,0.00043487548828125,
00:00:01.5,6.29425048828125E-05,-0.00167083740234375,0.000463485717773438,
00:00:01.504,6.29425048828125E-05,-0.00168228149414063,0.000463485717773438,
00:00:01.508,6.29425048828125E-05,-0.00168800354003906,0.00043487548828125,
00:00:01.512,6.29425048828125E-05,-0.00168228149414063,0.000469207763671875,
00:00:01.516,6.29425048828125E-05,-0.00167655944824219,0.000469207763671875,
00:00:01.52,6.29425048828125E-05,-0.00167083740234375,0.000440597534179688,
00:00:01.524,5.7220458984375E-05,-0.00168228149414063,0.000440597534179688,
00:00:01.528,6.29425048828125E-05,-0.00168228149414063,0.000452041625976563,
00:00:01.532,6.29425048828125E-05,-0.00167083740234375,0.000463485717773438,
00:00:01.536,6.29425048828125E-05,-0.00167083740234375,0.000463485717773438,
00:00:01.54,6.29425048828125E-05,-0.00168228149414063,0.000452041625976563,
00:00:01.544,6.29425048828125E-05,-0.00168800354003906,0.000440597534179688,
00:00:01.548,6.29425048828125E-05,-0.00167655944824219,0.000457763671875,
00:00:01.552,6.866455078125E-05,-0.00168228149414063,0.000492095947265625,
00:00:01.556,6.29425048828125E-05,-0.00168228149414063,0.000492095947265625,
00:00:01.56,5.7220458984375E-05,-0.00168228149414063,0.000440597534179688,
00:00:01.564,6.29425048828125E-05,-0.00167083740234375,0.000452041625976563,
00:00:01.568,6.29425048828125E-05,-0.00167083740234375,0.00048065185546875,
00:00:01.572,6.29425048828125E-05,-0.00168228149414063,0.000469207763671875,
00:00:01.576,6.29425048828125E-05,-0.00168228149414063,0.00043487548828125,
00:00:01.58,6.29425048828125E-05,-0.00167655944824219,0.000474929809570313,
00:00:01.584,6.29425048828125E-05,-0.00167083740234375,0.000452041625976563,
00:00:01.588,6.29425048828125E-05,-0.00167655944824219,0.000446319580078125,
00:00:01.592,6.29425048828125E-05,-0.00168800354003906,0.000457763671875,
00:00:01.596,6.29425048828125E-05,-0.00168228149414063,0.000463485717773438,
00:00:01.6,6.29425048828125E-05,-0.00167083740234375,0.000457763671875,
00:00:01.604,6.29425048828125E-05,-0.00167655944824219,0.000446319580078125,
00:00:01.608,6.866455078125E-05,-0.00168800354003906,0.000457763671875,
00:00:01.612,6.866455078125E-05,-0.00168800354003906,0.000474929809570313,
00:00:01.616,6.866455078125E-05,-0.00168228149414063,0.000509262084960938,
00:00:01.62,6.29425048828125E-05,-0.00167655944824219,0.000452041625976563,
00:00:01.624,6.29425048828125E-05,-0.00168228149414063,0.000474929809570313,
00:00:01.628,6.866455078125E-05,-0.00168800354003906,0.00048065185546875,
00:00:01.632,5.7220458984375E-05,-0.00166511535644531,0.000440597534179688,
00:00:01.636,5.7220458984375E-05,-0.00166511535644531,0.000452041625976563,
00:00:01.64,5.7220458984375E-05,-0.00167655944824219,0.000446319580078125,
00:00:01.644,6.29425048828125E-05,-0.00168800354003906,0.000457763671875,
00:00:01.648,6.29425048828125E-05,-0.00167083740234375,0.000463485717773438,
00:00:01.652,6.29425048828125E-05,-0.00167083740234375,0.000469207763671875,
00:00:01.656,6.29425048828125E-05,-0.00167655944824219,0.000457763671875,
00:00:01.66,6.29425048828125E-05,-0.00168800354003906,0.000452041625976563,
00:00:01.664,6.29425048828125E-05,-0.00167083740234375,0.000463485717773438,
00:00:01.668,6.29425048828125E-05,-0.00167083740234375,0.00048065185546875,
00:00:01.672,6.29425048828125E-05,-0.00167655944824219,0.000486373901367188,
00:00:01.676,6.29425048828125E-05,-0.00168228149414063,0.000457763671875,
00:00:01.68,5.7220458984375E-05,-0.00167083740234375,0.000417709350585938,
00:00:01.684,6.866455078125E-05,-0.00167655944824219,0.000463485717773438,
00:00:01.688,6.29425048828125E-05,-0.00167655944824219,0.00048065185546875,
00:00:01.692,6.29425048828125E-05,-0.00168800354003906,0.00048065185546875,
00:00:01.696,6.866455078125E-05,-0.00168800354003906,0.000492095947265625,
00:00:01.7,5.7220458984375E-05,-0.00166511535644531,0.000474929809570313,
00:00:01.704,5.7220458984375E-05,-0.00167083740234375,0.000469207763671875,
00:00:01.708,5.7220458984375E-05,-0.00167655944824219,0.000452041625976563,
00:00:01.712,5.7220458984375E-05,-0.00167655944824219,0.000452041625976563,
00:00:01.716,6.29425048828125E-05,-0.00167083740234375,0.000463485717773438,
00:00:01.72,6.29425048828125E-05,-0.00167083740234375,0.000469207763671875,
00:00:01.724,6.29425048828125E-05,-0.00168228149414063,0.000457763671875,
00:00:01.728,5.7220458984375E-05,-0.00167655944824219,0.000452041625976563,
00:00:01.732,5.7220458984375E-05,-0.00166511535644531,0.000474929809570313,
00:00:01.736,6.29425048828125E-05,-0.00167083740234375,0.000492095947265625,
00:00:01.74,6.29425048828125E-05,-0.00168228149414063,0.00048065185546875,
00:00:01.744,5.7220458984375E-05,-0.00167655944824219,0.000440597534179688,
00:00:01.748,5.7220458984375E-05,-0.00166511535644531,0.000497817993164063,
00:00:01.752,5.7220458984375E-05,-0.00166511535644531,0.000492095947265625,
00:00:01.756,5.7220458984375E-05,-0.00167655944824219,0.000457763671875,
00:00:01.76,6.29425048828125E-05,-0.00168228149414063,0.00048065185546875,
00:00:01.764,5.7220458984375E-05,-0.00167083740234375,0.000440597534179688,
00:00:01.768,5.7220458984375E-05,-0.00165939331054688,0.000440597534179688,
00:00:01.772,5.7220458984375E-05,-0.00167083740234375,0.00043487548828125,
00:00:01.776,6.29425048828125E-05,-0.00168800354003906,0.000452041625976563,
00:00:01.78,6.29425048828125E-05,-0.00167655944824219,0.00048065185546875,
00:00:01.784,5.7220458984375E-05,-0.00166511535644531,0.000486373901367188,
00:00:01.788,6.29425048828125E-05,-0.00167655944824219,0.000457763671875,
00:00:01.792,6.29425048828125E-05,-0.00168800354003906,0.000452041625976563,
00:00:01.796,5.7220458984375E-05,-0.00167083740234375,0.000469207763671875,
00:00:01.8,5.7220458984375E-05,-0.00165939331054688,0.000486373901367188,
00:00:01.804,5.7220458984375E-05,-0.00167083740234375,0.000469207763671875,
00:00:01.808,5.7220458984375E-05,-0.00168228149414063,0.000457763671875,
00:00:01.812,5.7220458984375E-05,-0.00167655944824219,0.000469207763671875,
00:00:01.816,6.29425048828125E-05,-0.00166511535644531,0.000486373901367188,
00:00:01.82,6.29425048828125E-05,-0.00167655944824219,0.0005035400390625,
00:00:01.824,6.29425048828125E-05,-0.00168228149414063,0.000486373901367188,
00:00:01.828,6.866455078125E-05,-0.00168228149414063,0.000446319580078125,
00:00:01.832,5.7220458984375E-05,-0.00166511535644531,0.000457763671875,
00:00:01.836,5.7220458984375E-05,-0.00166511535644531,0.000469207763671875,
00:00:01.84,5.7220458984375E-05,-0.00167655944824219,0.000469207763671875,
00:00:01.844,5.7220458984375E-05,-0.00167655944824219,0.000486373901367188,
00:00:01.848,5.7220458984375E-05,-0.00167083740234375,0.000457763671875,
00:00:01.852,6.29425048828125E-05,-0.00167083740234375,0.000474929809570313,
00:00:01.856,6.29425048828125E-05,-0.00168228149414063,0.000463485717773438,
00:00:01.86,5.7220458984375E-05,-0.00167655944824219,0.000440597534179688,
00:00:01.864,6.29425048828125E-05,-0.00167083740234375,0.000474929809570313,
00:00:01.868,5.7220458984375E-05,-0.00166511535644531,0.000497817993164063,
00:00:01.872,5.7220458984375E-05,-0.00167083740234375,0.0005035400390625,
00:00:01.876,5.7220458984375E-05,-0.00167655944824219,0.000469207763671875,
00:00:01.88,5.7220458984375E-05,-0.00167083740234375,0.000440597534179688,
00:00:01.884,6.29425048828125E-05,-0.00166511535644531,0.000474929809570313,
00:00:01.888,5.7220458984375E-05,-0.00167083740234375,0.000463485717773438,
00:00:01.892,5.7220458984375E-05,-0.00167655944824219,0.000446319580078125,
00:00:01.896,5.7220458984375E-05,-0.00167655944824219,0.000474929809570313,
00:00:01.9,6.29425048828125E-05,-0.00167083740234375,0.0005035400390625,
00:00:01.904,6.29425048828125E-05,-0.00167083740234375,0.000497817993164063,
00:00:01.908,5.7220458984375E-05,-0.00167655944824219,0.000446319580078125,
00:00:01.912,6.29425048828125E-05,-0.00168228149414063,0.000457763671875,
00:00:01.916,6.29425048828125E-05,-0.00167083740234375,0.000474929809570313,
00:00:01.92,5.7220458984375E-05,-0.00167083740234375,0.000469207763671875,
00:00:01.924,6.29425048828125E-05,-0.00168228149414063,0.000440597534179688,
00:00:01.928,6.866455078125E-05,-0.00168800354003906,0.000469207763671875,
00:00:01.932,6.866455078125E-05,-0.00167655944824219,0.000532150268554688,
00:00:01.936,5.7220458984375E-05,-0.00166511535644531,0.0005035400390625,
00:00:01.94,6.29425048828125E-05,-0.00168228149414063,0.000469207763671875,
00:00:01.944,6.29425048828125E-05,-0.00168228149414063,0.000452041625976563,
00:00:01.948,5.14984130859375E-05,-0.00165367126464844,0.000452041625976563,
00:00:01.952,5.7220458984375E-05,-0.00165939331054688,0.000463485717773438,
00:00:01.956,5.7220458984375E-05,-0.00167083740234375,0.000446319580078125,
00:00:01.96,5.7220458984375E-05,-0.00167655944824219,0.000440597534179688,
00:00:01.964,5.7220458984375E-05,-0.00167083740234375,0.00048065185546875,
00:00:01.968,5.7220458984375E-05,-0.00166511535644531,0.000514984130859375,
00:00:01.972,5.7220458984375E-05,-0.00167655944824219,0.000520706176757813,
00:00:01.976,5.7220458984375E-05,-0.00167655944824219,0.000429153442382813,
00:00:01.98,5.7220458984375E-05,-0.00167083740234375,0.000440597534179688,
00:00:01.984,5.7220458984375E-05,-0.00165939331054688,0.000474929809570313,
00:00:01.988,5.7220458984375E-05,-0.00167083740234375,0.000463485717773438,
00:00:01.992,5.7220458984375E-05,-0.00167655944824219,0.000446319580078125,
00:00:01.996,5.7220458984375E-05,-0.00167655944824219,0.000469207763671875,
00:00:02,5.7220458984375E-05,-0.00166511535644531,0.0005035400390625,
00:00:02.004,6.29425048828125E-05,-0.00167083740234375,0.000474929809570313,
00:00:02.008,6.29425048828125E-05,-0.00168228149414063,0.000452041625976563,
00:00:02.012,5.7220458984375E-05,-0.00167655944824219,0.000469207763671875,
00:00:02.016,5.7220458984375E-05,-0.00166511535644531,0.00048065185546875,
00:00:02.02,7.43865966796875E-05,-0.0016937255859375,0.00057220458984375,
00:00:02.024,6.866455078125E-05,-0.00168800354003906,0.000497817993164063,
00:00:02.028,5.14984130859375E-05,-0.00166511535644531,0.000406265258789063,
00:00:02.032,5.7220458984375E-05,-0.00166511535644531,0.00048065185546875,
00:00:02.036,5.7220458984375E-05,-0.00166511535644531,0.000492095947265625,
00:00:02.04,5.7220458984375E-05,-0.00167083740234375,0.000457763671875,
00:00:02.044,5.7220458984375E-05,-0.00168228149414063,0.000514984130859375,
00:00:02.048,5.14984130859375E-05,-0.00166511535644531,0.000492095947265625,
00:00:02.052,5.7220458984375E-05,-0.00166511535644531,0.000417709350585938,
00:00:02.056,5.7220458984375E-05,-0.00167655944824219,0.00043487548828125,
00:00:02.06,5.7220458984375E-05,-0.00167083740234375,0.000452041625976563,
00:00:02.064,5.7220458984375E-05,-0.00166511535644531,0.000486373901367188,
00:00:02.068,5.7220458984375E-05,-0.00166511535644531,0.00048065185546875,
00:00:02.072,5.7220458984375E-05,-0.00167083740234375,0.00043487548828125,
00:00:02.076,6.29425048828125E-05,-0.00168228149414063,0.000446319580078125,
00:00:02.08,5.7220458984375E-05,-0.00166511535644531,0.000463485717773438,
00:00:02.084,5.7220458984375E-05,-0.00165939331054688,0.00048065185546875,
00:00:02.088,5.7220458984375E-05,-0.00167083740234375,0.000469207763671875,
00:00:02.092,6.29425048828125E-05,-0.00168228149414063,0.000474929809570313,
00:00:02.096,6.866455078125E-05,-0.00168800354003906,0.000520706176757813,
00:00:02.1,6.866455078125E-05,-0.00167655944824219,0.000537872314453125,
00:00:02.104,5.7220458984375E-05,-0.00166511535644531,0.00043487548828125,
00:00:02.108,4.57763671875E-05,-0.00166511535644531,0.000417709350585938,
00:00:02.112,5.7220458984375E-05,-0.00167655944824219,0.00048065185546875,
00:00:02.116,5.7220458984375E-05,-0.00167083740234375,0.000566482543945313,
00:00:02.12,5.7220458984375E-05,-0.00167083740234375,0.00048065185546875,
00:00:02.124,5.7220458984375E-05,-0.00167655944824219,0.0004119873046875,
00:00:02.128,5.7220458984375E-05,-0.00167083740234375,0.000406265258789063,
00:00:02.132,5.14984130859375E-05,-0.00165939331054688,0.000457763671875,
00:00:02.136,5.7220458984375E-05,-0.00166511535644531,0.000463485717773438,
00:00:02.14,5.7220458984375E-05,-0.00167655944824219,0.000440597534179688,
00:00:02.144,5.7220458984375E-05,-0.00167655944824219,0.000440597534179688,
00:00:02.148,5.7220458984375E-05,-0.00166511535644531,0.000474929809570313,
00:00:02.152,5.7220458984375E-05,-0.00166511535644531,0.000474929809570313,
00:00:02.156,5.7220458984375E-05,-0.00167083740234375,0.000463485717773438,
00:00:02.16,5.7220458984375E-05,-0.00167655944824219,0.000463485717773438,
00:00:02.164,5.7220458984375E-05,-0.00167083740234375,0.000492095947265625,
00:00:02.168,5.7220458984375E-05,-0.00166511535644531,0.000497817993164063,
00:00:02.172,5.7220458984375E-05,-0.00167655944824219,0.000492095947265625,
00:00:02.176,6.29425048828125E-05,-0.00168228149414063,0.000469207763671875,
00:00:02.18,6.29425048828125E-05,-0.00167655944824219,0.000474929809570313,
00:00:02.184,6.29425048828125E-05,-0.00167083740234375,0.00048065185546875,
00:00:02.188,6.29425048828125E-05,-0.00167655944824219,0.000457763671875,
00:00:02.192,5.7220458984375E-05,-0.00167655944824219,0.000406265258789063,
00:00:02.196,6.29425048828125E-05,-0.00167655944824219,0.000492095947265625,
00:00:02.2,6.29425048828125E-05,-0.00167083740234375,0.000537872314453125,
00:00:02.204,6.866455078125E-05,-0.00168228149414063,0.000543594360351563,
00:00:02.208,5.14984130859375E-05,-0.00167083740234375,0.000429153442382813,
00:00:02.212,5.7220458984375E-05,-0.00167083740234375,0.000394821166992188,
00:00:02.216,5.7220458984375E-05,-0.00165939331054688,0.000474929809570313,
00:00:02.22,6.29425048828125E-05,-0.00166511535644531,0.000474929809570313,
00:00:02.224,6.29425048828125E-05,-0.00167655944824219,0.000457763671875,
00:00:02.228,6.29425048828125E-05,-0.00167655944824219,0.00048065185546875,
00:00:02.232,6.29425048828125E-05,-0.00167083740234375,0.00052642822265625,
00:00:02.236,6.29425048828125E-05,-0.00167083740234375,0.000532150268554688,
00:00:02.24,6.29425048828125E-05,-0.00168228149414063,0.000497817993164063,
00:00:02.244,6.29425048828125E-05,-0.00167655944824219,0.000429153442382813,
00:00:02.248,5.7220458984375E-05,-0.00165939331054688,0.000429153442382813,
00:00:02.252,5.7220458984375E-05,-0.00166511535644531,0.000457763671875,
00:00:02.256,5.7220458984375E-05,-0.00167083740234375,0.000452041625976563,
00:00:02.26,6.29425048828125E-05,-0.00168228149414063,0.000463485717773438,
00:00:02.264,6.866455078125E-05,-0.00167083740234375,0.000486373901367188,
00:00:02.268,6.29425048828125E-05,-0.00166511535644531,0.000474929809570313,
00:00:02.272,6.29425048828125E-05,-0.00167083740234375,0.000469207763671875,
00:00:02.276,6.29425048828125E-05,-0.00168228149414063,0.000457763671875,
00:00:02.28,6.29425048828125E-05,-0.00167655944824219,0.00048065185546875,
00:00:02.284,6.29425048828125E-05,-0.00166511535644531,0.0005035400390625,
00:00:02.288,6.29425048828125E-05,-0.00167083740234375,0.000509262084960938,
00:00:02.292,6.29425048828125E-05,-0.00168228149414063,0.000492095947265625,
00:00:02.296,6.29425048828125E-05,-0.00167083740234375,0.000452041625976563,
00:00:02.3,6.866455078125E-05,-0.00167083740234375,0.0005035400390625,
00:00:02.304,6.29425048828125E-05,-0.00167083740234375,0.000446319580078125,
00:00:02.308,5.7220458984375E-05,-0.00167655944824219,0.000423431396484375,
00:00:02.312,6.866455078125E-05,-0.00168228149414063,0.000520706176757813,
00:00:02.316,6.29425048828125E-05,-0.00167083740234375,0.000532150268554688,
00:00:02.32,5.7220458984375E-05,-0.00166511535644531,0.000469207763671875,
00:00:02.324,5.7220458984375E-05,-0.00167083740234375,0.000463485717773438,
00:00:02.328,6.29425048828125E-05,-0.00167655944824219,0.000452041625976563,
00:00:02.332,5.7220458984375E-05,-0.00165939331054688,0.000486373901367188,
00:00:02.336,5.7220458984375E-05,-0.00166511535644531,0.00054931640625,
00:00:02.34,6.29425048828125E-05,-0.00168228149414063,0.000486373901367188,
00:00:02.344,5.7220458984375E-05,-0.00167083740234375,0.000383377075195313,
00:00:02.348,6.29425048828125E-05,-0.00167083740234375,0.000474929809570313,
00:00:02.352,5.7220458984375E-05,-0.00165939331054688,0.000452041625976563,
00:00:02.356,5.7220458984375E-05,-0.00167083740234375,0.000457763671875,
00:00:02.36,5.7220458984375E-05,-0.00167083740234375,0.000474929809570313,
00:00:02.364,5.7220458984375E-05,-0.00166511535644531,0.00052642822265625,
00:00:02.368,5.7220458984375E-05,-0.00165939331054688,0.000520706176757813,
00:00:02.372,6.866455078125E-05,-0.00168228149414063,0.00048065185546875,
00:00:02.376,7.43865966796875E-05,-0.00168800354003906,0.00043487548828125,
00:00:02.38,5.14984130859375E-05,-0.00165939331054688,0.000440597534179688,
00:00:02.384,5.14984130859375E-05,-0.00164794921875,0.000474929809570313,
00:00:02.388,5.14984130859375E-05,-0.00165939331054688,0.000469207763671875,
00:00:02.392,5.7220458984375E-05,-0.00167083740234375,0.000486373901367188,
00:00:02.396,5.7220458984375E-05,-0.00167083740234375,0.000463485717773438,
00:00:02.4,5.7220458984375E-05,-0.00165939331054688,0.000474929809570313,
00:00:02.404,5.7220458984375E-05,-0.00166511535644531,0.000474929809570313,
00:00:02.408,5.7220458984375E-05,-0.00167655944824219,0.000452041625976563,
00:00:02.412,5.7220458984375E-05,-0.00167083740234375,0.000463485717773438,
00:00:02.416,5.7220458984375E-05,-0.00165939331054688,0.000486373901367188,
00:00:02.42,5.7220458984375E-05,-0.00166511535644531,0.000492095947265625,
00:00:02.424,6.29425048828125E-05,-0.00167655944824219,0.000474929809570313,
00:00:02.428,6.29425048828125E-05,-0.00167655944824219,0.000463485717773438,
00:00:02.432,5.7220458984375E-05,-0.00165939331054688,0.000492095947265625,
00:00:02.436,6.29425048828125E-05,-0.00166511535644531,0.000497817993164063,
00:00:02.44,6.29425048828125E-05,-0.00167655944824219,0.000474929809570313,
00:00:02.444,6.29425048828125E-05,-0.00168228149414063,0.000514984130859375,
00:00:02.448,5.7220458984375E-05,-0.00166511535644531,0.0005035400390625,
00:00:02.452,5.7220458984375E-05,-0.00165939331054688,0.000429153442382813,
00:00:02.456,6.29425048828125E-05,-0.00167083740234375,0.000446319580078125,
00:00:02.46,5.7220458984375E-05,-0.00167083740234375,0.000452041625976563,
00:00:02.464,5.7220458984375E-05,-0.00165939331054688,0.000474929809570313,
00:00:02.468,5.7220458984375E-05,-0.00165939331054688,0.000486373901367188,
00:00:02.472,5.7220458984375E-05,-0.00167083740234375,0.000474929809570313,
00:00:02.476,6.29425048828125E-05,-0.00167655944824219,0.000469207763671875,
00:00:02.48,6.29425048828125E-05,-0.00167655944824219,0.000514984130859375,
00:00:02.484,5.7220458984375E-05,-0.00165939331054688,0.000492095947265625,
00:00:02.488,5.14984130859375E-05,-0.00165939331054688,0.000457763671875,
00:00:02.492,5.7220458984375E-05,-0.00167083740234375,0.000463485717773438,
00:00:02.496,5.7220458984375E-05,-0.00166511535644531,0.000457763671875,
00:00:02.5,5.7220458984375E-05,-0.00165939331054688,0.000474929809570313,
00:00:02.504,5.7220458984375E-05,-0.00165939331054688,0.00043487548828125,
00:00:02.508,6.29425048828125E-05,-0.00168228149414063,0.000452041625976563,
00:00:02.512,6.29425048828125E-05,-0.00167083740234375,0.000492095947265625,
00:00:02.516,5.7220458984375E-05,-0.00165939331054688,0.000514984130859375,
00:00:02.52,5.7220458984375E-05,-0.00166511535644531,0.000492095947265625,
00:00:02.524,5.7220458984375E-05,-0.00167655944824219,0.000469207763671875,
00:00:02.528,6.29425048828125E-05,-0.00167655944824219,0.000474929809570313,
00:00:02.532,6.29425048828125E-05,-0.00166511535644531,0.00048065185546875,
00:00:02.536,5.7220458984375E-05,-0.00165367126464844,0.000469207763671875,
00:00:02.54,5.7220458984375E-05,-0.00167083740234375,0.000457763671875,
00:00:02.544,5.7220458984375E-05,-0.00167655944824219,0.00048065185546875,
00:00:02.548,5.7220458984375E-05,-0.00166511535644531,0.0005035400390625,
00:00:02.552,5.7220458984375E-05,-0.00165939331054688,0.000474929809570313,
00:00:02.556,5.7220458984375E-05,-0.00167083740234375,0.000457763671875,
00:00:02.56,6.29425048828125E-05,-0.00167655944824219,0.000452041625976563,
00:00:02.564,6.29425048828125E-05,-0.00166511535644531,0.000492095947265625,
00:00:02.568,5.7220458984375E-05,-0.00166511535644531,0.000514984130859375,
00:00:02.572,5.7220458984375E-05,-0.00167083740234375,0.000492095947265625,
00:00:02.576,6.29425048828125E-05,-0.00167655944824219,0.000469207763671875,
00:00:02.58,6.29425048828125E-05,-0.00167083740234375,0.000497817993164063,
00:00:02.584,6.866455078125E-05,-0.00167083740234375,0.000532150268554688,
00:00:02.588,5.7220458984375E-05,-0.00166511535644531,0.000463485717773438,
00:00:02.592,5.7220458984375E-05,-0.00167083740234375,0.000429153442382813,
00:00:02.596,5.7220458984375E-05,-0.00165939331054688,0.000457763671875,
00:00:02.6,5.7220458984375E-05,-0.00165367126464844,0.000469207763671875,
00:00:02.604,6.866455078125E-05,-0.00167655944824219,0.00048065185546875,
00:00:02.608,5.7220458984375E-05,-0.00167083740234375,0.00048065185546875,
00:00:02.612,5.14984130859375E-05,-0.00166511535644531,0.000492095947265625,
00:00:02.616,5.7220458984375E-05,-0.00165367126464844,0.000486373901367188,
00:00:02.62,5.7220458984375E-05,-0.00165939331054688,0.00048065185546875,
00:00:02.624,5.7220458984375E-05,-0.00167083740234375,0.000469207763671875,
00:00:02.628,5.7220458984375E-05,-0.00167083740234375,0.000457763671875,
00:00:02.632,5.7220458984375E-05,-0.00165939331054688,0.00048065185546875,
00:00:02.636,5.7220458984375E-05,-0.00165939331054688,0.000486373901367188,
00:00:02.64,5.7220458984375E-05,-0.00167083740234375,0.000469207763671875,
00:00:02.644,6.29425048828125E-05,-0.00167655944824219,0.000474929809570313,
00:00:02.648,5.7220458984375E-05,-0.00166511535644531,0.0005035400390625,
00:00:02.652,5.7220458984375E-05,-0.00165939331054688,0.000509262084960938,
00:00:02.656,6.29425048828125E-05,-0.00167655944824219,0.00048065185546875,
00:00:02.66,6.29425048828125E-05,-0.00168228149414063,0.000463485717773438,
00:00:02.664,5.7220458984375E-05,-0.00166511535644531,0.000486373901367188,
00:00:02.668,5.14984130859375E-05,-0.00165367126464844,0.00048065185546875,
00:00:02.672,5.7220458984375E-05,-0.00166511535644531,0.000469207763671875,
00:00:02.676,5.7220458984375E-05,-0.00167083740234375,0.000463485717773438,
00:00:02.68,5.7220458984375E-05,-0.00166511535644531,0.000492095947265625,
00:00:02.684,5.7220458984375E-05,-0.00165939331054688,0.000514984130859375,
00:00:02.688,6.29425048828125E-05,-0.00167083740234375,0.000520706176757813,
00:00:02.692,6.866455078125E-05,-0.00168800354003906,0.000509262084960938,
00:00:02.696,6.29425048828125E-05,-0.00166511535644531,0.000469207763671875,
00:00:02.7,5.7220458984375E-05,-0.00165939331054688,0.000497817993164063,
00:00:02.704,5.7220458984375E-05,-0.00165939331054688,0.000469207763671875,
00:00:02.708,5.14984130859375E-05,-0.00166511535644531,0.000423431396484375,
00:00:02.712,5.7220458984375E-05,-0.00167083740234375,0.00043487548828125,
00:00:02.716,6.866455078125E-05,-0.00167083740234375,0.000509262084960938,
00:00:02.72,5.7220458984375E-05,-0.00166511535644531,0.000497817993164063,
00:00:02.724,5.7220458984375E-05,-0.00167083740234375,0.00048065185546875,
00:00:02.728,5.14984130859375E-05,-0.00166511535644531,0.00048065185546875,
00:00:02.732,5.7220458984375E-05,-0.00165939331054688,0.000555038452148438,
00:00:02.736,5.7220458984375E-05,-0.00165939331054688,0.00054931640625,
00:00:02.74,5.14984130859375E-05,-0.00166511535644531,0.000406265258789063,
00:00:02.744,5.7220458984375E-05,-0.00167083740234375,0.000452041625976563,
00:00:02.748,5.7220458984375E-05,-0.00165939331054688,0.000514984130859375,
00:00:02.752,5.7220458984375E-05,-0.00165939331054688,0.000486373901367188,
00:00:02.756,5.7220458984375E-05,-0.00166511535644531,0.000446319580078125,
00:00:02.76,5.7220458984375E-05,-0.00167083740234375,0.000452041625976563,
00:00:02.764,5.7220458984375E-05,-0.00165939331054688,0.000486373901367188,
00:00:02.768,5.7220458984375E-05,-0.00165939331054688,0.000497817993164063,
00:00:02.772,5.7220458984375E-05,-0.00166511535644531,0.000486373901367188,
00:00:02.776,5.7220458984375E-05,-0.00167083740234375,0.000469207763671875,
00:00:02.78,5.7220458984375E-05,-0.00166511535644531,0.000469207763671875,
00:00:02.784,5.7220458984375E-05,-0.00165939331054688,0.000497817993164063,
00:00:02.788,5.7220458984375E-05,-0.00167083740234375,0.000532150268554688,
00:00:02.792,6.29425048828125E-05,-0.00168228149414063,0.000514984130859375,
00:00:02.796,6.29425048828125E-05,-0.00167083740234375,0.000463485717773438,
00:00:02.8,6.29425048828125E-05,-0.00165939331054688,0.000492095947265625,
00:00:02.804,5.14984130859375E-05,-0.00165367126464844,0.00048065185546875,
00:00:02.808,5.14984130859375E-05,-0.00166511535644531,0.000457763671875,
00:00:02.812,5.7220458984375E-05,-0.00166511535644531,0.000486373901367188,
00:00:02.816,5.7220458984375E-05,-0.00165367126464844,0.000509262084960938,
00:00:02.82,6.29425048828125E-05,-0.00166511535644531,0.000509262084960938,
00:00:02.824,6.866455078125E-05,-0.00168228149414063,0.000440597534179688,
00:00:02.828,6.29425048828125E-05,-0.00167083740234375,0.000463485717773438,
00:00:02.832,5.7220458984375E-05,-0.00165367126464844,0.000509262084960938,
00:00:02.836,5.14984130859375E-05,-0.00165367126464844,0.000492095947265625,
00:00:02.84,5.7220458984375E-05,-0.00166511535644531,0.000463485717773438,
00:00:02.844,5.7220458984375E-05,-0.00167083740234375,0.000463485717773438,
00:00:02.848,5.7220458984375E-05,-0.00165939331054688,0.000486373901367188,
00:00:02.852,5.7220458984375E-05,-0.00165367126464844,0.000492095947265625,
00:00:02.856,5.7220458984375E-05,-0.00167083740234375,0.00048065185546875,
00:00:02.86,6.29425048828125E-05,-0.00167655944824219,0.000486373901367188,
00:00:02.864,5.7220458984375E-05,-0.00166511535644531,0.000532150268554688,
00:00:02.868,6.29425048828125E-05,-0.00166511535644531,0.000566482543945313,
00:00:02.872,6.29425048828125E-05,-0.00167083740234375,0.000497817993164063,
00:00:02.876,5.7220458984375E-05,-0.00166511535644531,0.000423431396484375,
00:00:02.88,5.7220458984375E-05,-0.00166511535644531,0.000463485717773438,
00:00:02.884,5.7220458984375E-05,-0.00165939331054688,0.000514984130859375,
00:00:02.888,6.29425048828125E-05,-0.00167083740234375,0.0005035400390625,
00:00:02.892,5.7220458984375E-05,-0.00166511535644531,0.00043487548828125,
00:00:02.896,5.7220458984375E-05,-0.00165939331054688,0.000446319580078125,
00:00:02.9,5.7220458984375E-05,-0.00165367126464844,0.00048065185546875,
00:00:02.904,5.7220458984375E-05,-0.00165939331054688,0.000474929809570313,
00:00:02.908,6.29425048828125E-05,-0.00167083740234375,0.000463485717773438,
00:00:02.912,6.29425048828125E-05,-0.00167083740234375,0.00048065185546875,
00:00:02.916,6.29425048828125E-05,-0.00166511535644531,0.0005035400390625,
00:00:02.92,6.29425048828125E-05,-0.00165939331054688,0.000463485717773438,
00:00:02.924,6.29425048828125E-05,-0.00167655944824219,0.000474929809570313,
00:00:02.928,6.29425048828125E-05,-0.00167083740234375,0.000492095947265625,
00:00:02.932,6.29425048828125E-05,-0.00165939331054688,0.000492095947265625,
00:00:02.936,6.29425048828125E-05,-0.00166511535644531,0.00052642822265625,
00:00:02.94,6.29425048828125E-05,-0.00167083740234375,0.000474929809570313,
00:00:02.944,6.29425048828125E-05,-0.00167655944824219,0.000469207763671875,
00:00:02.948,6.29425048828125E-05,-0.00167083740234375,0.000514984130859375,
00:00:02.952,6.29425048828125E-05,-0.00165939331054688,0.00048065185546875,
00:00:02.956,5.7220458984375E-05,-0.00166511535644531,0.000452041625976563,
00:00:02.96,6.29425048828125E-05,-0.00167083740234375,0.000463485717773438,
00:00:02.964,6.29425048828125E-05,-0.00166511535644531,0.000520706176757813,
00:00:02.968,6.29425048828125E-05,-0.00165939331054688,0.000532150268554688,
00:00:02.972,6.29425048828125E-05,-0.00166511535644531,0.000457763671875,
00:00:02.976,6.29425048828125E-05,-0.00167083740234375,0.000440597534179688,
00:00:02.98,6.866455078125E-05,-0.00167083740234375,0.000492095947265625,
00:00:02.984,6.866455078125E-05,-0.00166511535644531,0.000509262084960938,
00:00:02.988,5.7220458984375E-05,-0.00165939331054688,0.000457763671875,
00:00:02.992,6.29425048828125E-05,-0.00167083740234375,0.000457763671875,
00:00:02.996,6.866455078125E-05,-0.00167655944824219,0.000509262084960938,
00:00:03,6.866455078125E-05,-0.00166511535644531,0.000520706176757813,
00:00:03.004,5.7220458984375E-05,-0.00165367126464844,0.00048065185546875,
00:00:03.008,5.7220458984375E-05,-0.00167083740234375,0.000463485717773438,
00:00:03.012,6.29425048828125E-05,-0.00167083740234375,0.000463485717773438,
00:00:03.016,6.29425048828125E-05,-0.00165939331054688,0.0005035400390625,
00:00:03.02,6.29425048828125E-05,-0.00165939331054688,0.000474929809570313,
00:00:03.024,6.29425048828125E-05,-0.00167083740234375,0.000406265258789063,
00:00:03.028,6.866455078125E-05,-0.00168228149414063,0.000497817993164063,
00:00:03.032,6.29425048828125E-05,-0.00165939331054688,0.00052642822265625,
00:00:03.036,6.29425048828125E-05,-0.00165939331054688,0.0005035400390625,
00:00:03.04,5.7220458984375E-05,-0.00166511535644531,0.000440597534179688,
00:00:03.044,5.7220458984375E-05,-0.00167083740234375,0.000463485717773438,
00:00:03.048,6.29425048828125E-05,-0.00165939331054688,0.000497817993164063,
00:00:03.052,6.29425048828125E-05,-0.00165939331054688,0.000497817993164063,
00:00:03.056,6.29425048828125E-05,-0.00166511535644531,0.000474929809570313,
00:00:03.06,6.29425048828125E-05,-0.00167083740234375,0.000469207763671875,
00:00:03.064,6.29425048828125E-05,-0.00166511535644531,0.000492095947265625,
00:00:03.068,6.29425048828125E-05,-0.00165939331054688,0.000497817993164063,
00:00:03.072,6.29425048828125E-05,-0.00166511535644531,0.00048065185546875,
00:00:03.076,6.29425048828125E-05,-0.00167655944824219,0.00048065185546875,
00:00:03.08,6.29425048828125E-05,-0.00166511535644531,0.000492095947265625,
00:00:03.084,6.29425048828125E-05,-0.00165939331054688,0.000497817993164063,
00:00:03.088,6.29425048828125E-05,-0.00167083740234375,0.000514984130859375,
00:00:03.092,6.29425048828125E-05,-0.00167655944824219,0.000520706176757813,
00:00:03.096,6.29425048828125E-05,-0.00167083740234375,0.000457763671875,
00:00:03.1,5.7220458984375E-05,-0.00165367126464844,0.000486373901367188,
00:00:03.104,6.29425048828125E-05,-0.00166511535644531,0.000509262084960938,
00:00:03.108,6.866455078125E-05,-0.00168228149414063,0.000492095947265625,
00:00:03.112,6.29425048828125E-05,-0.00167083740234375,0.00048065185546875,
00:00:03.116,6.29425048828125E-05,-0.00165367126464844,0.000463485717773438,
00:00:03.12,5.14984130859375E-05,-0.00164794921875,0.000429153442382813,
00:00:03.124,6.29425048828125E-05,-0.00167083740234375,0.000446319580078125,
00:00:03.128,6.29425048828125E-05,-0.00167083740234375,0.000469207763671875,
00:00:03.132,6.29425048828125E-05,-0.00165939331054688,0.000509262084960938,
00:00:03.136,6.29425048828125E-05,-0.00165939331054688,0.000520706176757813,
00:00:03.14,5.7220458984375E-05,-0.00167083740234375,0.000469207763671875,
00:00:03.144,6.29425048828125E-05,-0.00167083740234375,0.000446319580078125,
00:00:03.148,6.29425048828125E-05,-0.00165939331054688,0.000486373901367188,
00:00:03.152,6.29425048828125E-05,-0.00166511535644531,0.000514984130859375,
00:00:03.156,6.29425048828125E-05,-0.00167083740234375,0.000492095947265625,
00:00:03.16,6.29425048828125E-05,-0.00167083740234375,0.000457763671875,
00:00:03.164,5.7220458984375E-05,-0.00165939331054688,0.000486373901367188,
00:00:03.168,6.29425048828125E-05,-0.00165367126464844,0.0005035400390625,
00:00:03.172,6.866455078125E-05,-0.00167655944824219,0.000474929809570313,
00:00:03.176,6.866455078125E-05,-0.00168228149414063,0.00048065185546875,
00:00:03.18,6.29425048828125E-05,-0.00166511535644531,0.000537872314453125,
00:00:03.184,6.866455078125E-05,-0.00166511535644531,0.000537872314453125,
00:00:03.188,6.866455078125E-05,-0.00167083740234375,0.000474929809570313,
00:00:03.192,5.7220458984375E-05,-0.00166511535644531,0.000452041625976563,
00:00:03.196,5.7220458984375E-05,-0.00165939331054688,0.000457763671875,
00:00:03.2,6.29425048828125E-05,-0.00165367126464844,0.000492095947265625,
00:00:03.204,5.7220458984375E-05,-0.00165367126464844,0.000486373901367188,
00:00:03.208,6.29425048828125E-05,-0.00167083740234375,0.000469207763671875,
00:00:03.212,6.29425048828125E-05,-0.00167083740234375,0.00048065185546875,
00:00:03.216,6.29425048828125E-05,-0.00166511535644531,0.000520706176757813,
00:00:03.22,5.7220458984375E-05,-0.00165367126464844,0.000486373901367188,
00:00:03.224,6.29425048828125E-05,-0.00167083740234375,0.000457763671875,
00:00:03.228,6.29425048828125E-05,-0.00167083740234375,0.000474929809570313,
00:00:03.232,5.7220458984375E-05,-0.00165367126464844,0.000497817993164063,
00:00:03.236,6.29425048828125E-05,-0.00165939331054688,0.000497817993164063,
00:00:03.24,6.29425048828125E-05,-0.00166511535644531,0.000474929809570313,
00:00:03.244,6.29425048828125E-05,-0.00167083740234375,0.000474929809570313,
00:00:03.248,6.29425048828125E-05,-0.00166511535644531,0.000514984130859375,
00:00:03.252,6.29425048828125E-05,-0.00165939331054688,0.000497817993164063,
00:00:03.256,5.7220458984375E-05,-0.00166511535644531,0.000463485717773438,
00:00:03.26,6.29425048828125E-05,-0.00167083740234375,0.00048065185546875,
00:00:03.264,6.29425048828125E-05,-0.00166511535644531,0.0005035400390625,
00:00:03.268,6.29425048828125E-05,-0.00165939331054688,0.000486373901367188,
00:00:03.272,6.866455078125E-05,-0.00167655944824219,0.000509262084960938,
00:00:03.276,6.866455078125E-05,-0.00168228149414063,0.000509262084960938,
00:00:03.28,6.29425048828125E-05,-0.00165939331054688,0.00048065185546875,
00:00:03.284,5.7220458984375E-05,-0.00165367126464844,0.000492095947265625,
00:00:03.288,5.7220458984375E-05,-0.00165939331054688,0.000492095947265625,
00:00:03.292,6.866455078125E-05,-0.00167655944824219,0.000469207763671875,
00:00:03.296,6.29425048828125E-05,-0.00166511535644531,0.000463485717773438,
00:00:03.3,5.7220458984375E-05,-0.00164794921875,0.000457763671875,
00:00:03.304,6.29425048828125E-05,-0.00166511535644531,0.000486373901367188,
00:00:03.308,5.7220458984375E-05,-0.00166511535644531,0.00048065185546875,
00:00:03.312,6.29425048828125E-05,-0.00166511535644531,0.000486373901367188,
00:00:03.316,5.7220458984375E-05,-0.00165939331054688,0.0005035400390625,
00:00:03.32,5.7220458984375E-05,-0.00165939331054688,0.000492095947265625,
00:00:03.324,5.7220458984375E-05,-0.00167083740234375,0.00048065185546875,
00:00:03.328,6.29425048828125E-05,-0.00167083740234375,0.000497817993164063,
00:00:03.332,5.7220458984375E-05,-0.00165939331054688,0.000497817993164063,
00:00:03.336,5.7220458984375E-05,-0.00165939331054688,0.000492095947265625,
00:00:03.34,6.29425048828125E-05,-0.00167083740234375,0.00048065185546875,
00:00:03.344,6.29425048828125E-05,-0.00167655944824219,0.000474929809570313,
00:00:03.348,5.7220458984375E-05,-0.00165939331054688,0.000486373901367188,
00:00:03.352,5.7220458984375E-05,-0.00165367126464844,0.000497817993164063,
00:00:03.356,5.7220458984375E-05,-0.00166511535644531,0.000474929809570313,
00:00:03.36,6.29425048828125E-05,-0.00167083740234375,0.000474929809570313,
00:00:03.364,6.29425048828125E-05,-0.00166511535644531,0.000509262084960938,
00:00:03.368,6.866455078125E-05,-0.00166511535644531,0.000532150268554688,
00:00:03.372,6.866455078125E-05,-0.00167083740234375,0.000486373901367188,
00:00:03.376,5.14984130859375E-05,-0.00166511535644531,0.00043487548828125,
00:00:03.38,5.7220458984375E-05,-0.00165939331054688,0.000486373901367188,
00:00:03.384,6.29425048828125E-05,-0.00165939331054688,0.000509262084960938,
00:00:03.388,6.29425048828125E-05,-0.00166511535644531,0.000492095947265625,
00:00:03.392,5.7220458984375E-05,-0.00166511535644531,0.000474929809570313,
00:00:03.396,5.7220458984375E-05,-0.00166511535644531,0.000486373901367188,
00:00:03.4,6.29425048828125E-05,-0.00166511535644531,0.000520706176757813,
00:00:03.404,6.866455078125E-05,-0.00167655944824219,0.000577926635742188,
00:00:03.408,6.29425048828125E-05,-0.00167655944824219,0.000555038452148438,
00:00:03.412,5.7220458984375E-05,-0.00165939331054688,0.00043487548828125,
00:00:03.416,6.29425048828125E-05,-0.00165939331054688,0.000446319580078125,
00:00:03.42,5.7220458984375E-05,-0.00165367126464844,0.000474929809570313,
00:00:03.424,5.7220458984375E-05,-0.00166511535644531,0.000457763671875,
00:00:03.428,5.7220458984375E-05,-0.00166511535644531,0.000469207763671875,
00:00:03.432,5.7220458984375E-05,-0.00165939331054688,0.000497817993164063,
00:00:03.436,5.7220458984375E-05,-0.00165939331054688,0.000509262084960938,
00:00:03.44,5.7220458984375E-05,-0.00167083740234375,0.000486373901367188,
00:00:03.444,5.7220458984375E-05,-0.00167083740234375,0.000463485717773438,
00:00:03.448,6.29425048828125E-05,-0.00165939331054688,0.000497817993164063,
00:00:03.452,6.29425048828125E-05,-0.00165939331054688,0.0005035400390625,
00:00:03.456,6.29425048828125E-05,-0.00166511535644531,0.000486373901367188,
00:00:03.46,5.7220458984375E-05,-0.00167083740234375,0.00048065185546875,
00:00:03.464,5.7220458984375E-05,-0.00166511535644531,0.000497817993164063,
00:00:03.468,6.29425048828125E-05,-0.00165939331054688,0.0005035400390625,
00:00:03.472,5.7220458984375E-05,-0.00166511535644531,0.000486373901367188,
00:00:03.476,6.29425048828125E-05,-0.00167655944824219,0.000497817993164063,
00:00:03.48,7.43865966796875E-05,-0.00167655944824219,0.0005035400390625,
00:00:03.484,5.7220458984375E-05,-0.00165939331054688,0.0005035400390625,
00:00:03.488,5.14984130859375E-05,-0.00165367126464844,0.000486373901367188,
00:00:03.492,6.29425048828125E-05,-0.00167655944824219,0.000474929809570313,
00:00:03.496,6.866455078125E-05,-0.00167655944824219,0.000497817993164063,
00:00:03.5,6.29425048828125E-05,-0.00165367126464844,0.000492095947265625,
00:00:03.504,6.29425048828125E-05,-0.00165939331054688,0.000509262084960938,
00:00:03.508,6.29425048828125E-05,-0.00167083740234375,0.000509262084960938,
00:00:03.512,5.7220458984375E-05,-0.00166511535644531,0.000463485717773438,
00:00:03.516,5.7220458984375E-05,-0.00165367126464844,0.00048065185546875,
00:00:03.52,5.7220458984375E-05,-0.00165939331054688,0.000497817993164063,
00:00:03.524,6.29425048828125E-05,-0.00167655944824219,0.000492095947265625,
00:00:03.528,6.29425048828125E-05,-0.00167083740234375,0.000469207763671875,
00:00:03.532,5.7220458984375E-05,-0.00165939331054688,0.000497817993164063,
00:00:03.536,5.7220458984375E-05,-0.00165939331054688,0.0005035400390625,
00:00:03.54,5.7220458984375E-05,-0.00166511535644531,0.000469207763671875,
00:00:03.544,5.7220458984375E-05,-0.00167083740234375,0.000469207763671875,
00:00:03.548,6.29425048828125E-05,-0.00165939331054688,0.0005035400390625,
00:00:03.552,5.7220458984375E-05,-0.00165939331054688,0.000514984130859375,
00:00:03.556,6.29425048828125E-05,-0.00167083740234375,0.000497817993164063,
00:00:03.56,6.866455078125E-05,-0.00168228149414063,0.00048065185546875,
00:00:03.564,6.29425048828125E-05,-0.00166511535644531,0.000514984130859375,
00:00:03.568,5.7220458984375E-05,-0.00165367126464844,0.000514984130859375,
00:00:03.572,5.7220458984375E-05,-0.00166511535644531,0.000452041625976563,
00:00:03.576,6.29425048828125E-05,-0.00167655944824219,0.000474929809570313,
00:00:03.58,6.29425048828125E-05,-0.00166511535644531,0.000514984130859375,
00:00:03.584,6.866455078125E-05,-0.00166511535644531,0.000532150268554688,
00:00:03.588,5.7220458984375E-05,-0.00165367126464844,0.000469207763671875,
00:00:03.592,5.7220458984375E-05,-0.00166511535644531,0.000452041625976563,
00:00:03.596,6.29425048828125E-05,-0.00166511535644531,0.000492095947265625,
00:00:03.6,6.29425048828125E-05,-0.00165939331054688,0.000514984130859375,
00:00:03.604,6.29425048828125E-05,-0.00166511535644531,0.000492095947265625,
00:00:03.608,6.29425048828125E-05,-0.00167083740234375,0.000492095947265625,
00:00:03.612,6.29425048828125E-05,-0.00167083740234375,0.00052642822265625,
00:00:03.616,5.7220458984375E-05,-0.00165939331054688,0.000537872314453125,
00:00:03.62,5.7220458984375E-05,-0.00165367126464844,0.000463485717773438,
00:00:03.624,6.29425048828125E-05,-0.00167083740234375,0.000446319580078125,
00:00:03.628,6.29425048828125E-05,-0.00167083740234375,0.000469207763671875,
00:00:03.632,6.29425048828125E-05,-0.00166511535644531,0.000514984130859375,
00:00:03.636,7.43865966796875E-05,-0.00167655944824219,0.000583648681640625,
00:00:03.64,6.866455078125E-05,-0.00167655944824219,0.000509262084960938,
00:00:03.644,5.7220458984375E-05,-0.00165939331054688,0.000406265258789063,
00:00:03.648,5.7220458984375E-05,-0.00165939331054688,0.000469207763671875,
00:00:03.652,5.7220458984375E-05,-0.00165367126464844,0.000497817993164063,
00:00:03.656,5.7220458984375E-05,-0.00166511535644531,0.00048065185546875,
00:00:03.66,5.7220458984375E-05,-0.00167083740234375,0.000486373901367188,
00:00:03.664,5.7220458984375E-05,-0.00165939331054688,0.0005035400390625,
00:00:03.668,6.29425048828125E-05,-0.00165939331054688,0.000520706176757813,
00:00:03.672,6.866455078125E-05,-0.00167083740234375,0.000509262084960938,
00:00:03.676,5.7220458984375E-05,-0.00166511535644531,0.000446319580078125,
00:00:03.68,6.29425048828125E-05,-0.00166511535644531,0.000486373901367188,
00:00:03.684,5.7220458984375E-05,-0.00165939331054688,0.000492095947265625,
00:00:03.688,5.7220458984375E-05,-0.00165939331054688,0.00048065185546875,
00:00:03.692,5.7220458984375E-05,-0.00167083740234375,0.00048065185546875,
00:00:03.696,5.7220458984375E-05,-0.00166511535644531,0.000497817993164063,
00:00:03.7,6.29425048828125E-05,-0.00165939331054688,0.000509262084960938,
00:00:03.704,6.29425048828125E-05,-0.00166511535644531,0.000497817993164063,
00:00:03.708,5.7220458984375E-05,-0.00166511535644531,0.000474929809570313,
00:00:03.712,6.29425048828125E-05,-0.00167083740234375,0.000486373901367188,
00:00:03.716,6.29425048828125E-05,-0.00165939331054688,0.0005035400390625,
00:00:03.72,5.7220458984375E-05,-0.00165939331054688,0.000514984130859375,
00:00:03.724,6.29425048828125E-05,-0.00167083740234375,0.000492095947265625,
00:00:03.728,5.7220458984375E-05,-0.00167083740234375,0.000492095947265625,
00:00:03.732,6.29425048828125E-05,-0.00165939331054688,0.0005035400390625,
00:00:03.736,6.29425048828125E-05,-0.00165367126464844,0.000492095947265625,
00:00:03.74,6.29425048828125E-05,-0.00167083740234375,0.00048065185546875,
00:00:03.744,6.866455078125E-05,-0.00168228149414063,0.00052642822265625,
00:00:03.748,6.29425048828125E-05,-0.00166511535644531,0.000543594360351563,
00:00:03.752,5.7220458984375E-05,-0.00165939331054688,0.000532150268554688,
00:00:03.756,6.866455078125E-05,-0.00167083740234375,0.00048065185546875,
00:00:03.76,5.14984130859375E-05,-0.00165939331054688,0.0004119873046875,
00:00:03.764,5.14984130859375E-05,-0.00165367126464844,0.000486373901367188,
00:00:03.768,5.7220458984375E-05,-0.00165367126464844,0.000497817993164063,
00:00:03.772,5.7220458984375E-05,-0.00166511535644531,0.000452041625976563,
00:00:03.776,6.29425048828125E-05,-0.00167655944824219,0.000463485717773438,
00:00:03.78,5.7220458984375E-05,-0.00165939331054688,0.000520706176757813,
00:00:03.784,5.7220458984375E-05,-0.00165367126464844,0.0005035400390625,
00:00:03.788,5.7220458984375E-05,-0.00165939331054688,0.000486373901367188,
00:00:03.792,5.7220458984375E-05,-0.00167083740234375,0.000474929809570313,
00:00:03.796,5.7220458984375E-05,-0.00166511535644531,0.0005035400390625,
00:00:03.8,5.7220458984375E-05,-0.00165367126464844,0.00052642822265625,
00:00:03.804,5.7220458984375E-05,-0.00165939331054688,0.000492095947265625,
00:00:03.808,5.7220458984375E-05,-0.00167083740234375,0.000463485717773438,
00:00:03.812,5.7220458984375E-05,-0.00167083740234375,0.00048065185546875,
00:00:03.816,6.29425048828125E-05,-0.00165939331054688,0.00052642822265625,
00:00:03.82,5.7220458984375E-05,-0.00165939331054688,0.000497817993164063,
00:00:03.824,5.7220458984375E-05,-0.00166511535644531,0.000469207763671875,
00:00:03.828,5.7220458984375E-05,-0.00166511535644531,0.000486373901367188,
00:00:03.832,6.29425048828125E-05,-0.00165939331054688,0.000509262084960938,
00:00:03.836,6.866455078125E-05,-0.00166511535644531,0.000509262084960938,
00:00:03.84,6.29425048828125E-05,-0.00167083740234375,0.000509262084960938,
00:00:03.844,5.7220458984375E-05,-0.00166511535644531,0.0005035400390625,
00:00:03.848,5.7220458984375E-05,-0.00165939331054688,0.000566482543945313,
00:00:03.852,5.7220458984375E-05,-0.00165367126464844,0.000514984130859375,
00:00:03.856,5.7220458984375E-05,-0.00165939331054688,0.000417709350585938,
00:00:03.86,6.866455078125E-05,-0.00167655944824219,0.000492095947265625,
00:00:03.864,6.866455078125E-05,-0.00167655944824219,0.000566482543945313,
00:00:03.868,6.29425048828125E-05,-0.00165367126464844,0.000509262084960938,
00:00:03.872,5.7220458984375E-05,-0.00165939331054688,0.000429153442382813,
00:00:03.876,5.7220458984375E-05,-0.00167083740234375,0.000440597534179688,
00:00:03.88,5.7220458984375E-05,-0.00165367126464844,0.000429153442382813,
00:00:03.884,6.29425048828125E-05,-0.00165939331054688,0.000497817993164063,
00:00:03.888,5.7220458984375E-05,-0.00165939331054688,0.000514984130859375,
00:00:03.892,5.7220458984375E-05,-0.00167083740234375,0.000492095947265625,
00:00:03.896,6.29425048828125E-05,-0.00166511535644531,0.0005035400390625,
00:00:03.9,5.7220458984375E-05,-0.00165367126464844,0.000514984130859375,
00:00:03.904,5.7220458984375E-05,-0.00165939331054688,0.000497817993164063,
00:00:03.908,5.7220458984375E-05,-0.00166511535644531,0.000469207763671875,
00:00:03.912,5.7220458984375E-05,-0.00166511535644531,0.000497817993164063,
00:00:03.916,5.7220458984375E-05,-0.00165939331054688,0.000520706176757813,
00:00:03.92,5.7220458984375E-05,-0.00165367126464844,0.000497817993164063,
00:00:03.924,5.7220458984375E-05,-0.00167083740234375,0.00048065185546875,
00:00:03.928,6.866455078125E-05,-0.00167655944824219,0.000497817993164063,
00:00:03.932,6.29425048828125E-05,-0.00165939331054688,0.000514984130859375,
00:00:03.936,5.7220458984375E-05,-0.00165367126464844,0.0005035400390625,
00:00:03.94,5.7220458984375E-05,-0.00166511535644531,0.000492095947265625,
00:00:03.944,6.29425048828125E-05,-0.00167655944824219,0.0005035400390625,
00:00:03.948,6.29425048828125E-05,-0.00166511535644531,0.000532150268554688,
00:00:03.952,5.7220458984375E-05,-0.00165367126464844,0.000492095947265625,
00:00:03.956,5.7220458984375E-05,-0.00165939331054688,0.000469207763671875,
00:00:03.96,6.29425048828125E-05,-0.00167083740234375,0.00048065185546875,
00:00:03.964,5.7220458984375E-05,-0.00165367126464844,0.0005035400390625,
00:00:03.968,6.29425048828125E-05,-0.00165939331054688,0.000543594360351563,
00:00:03.972,6.866455078125E-05,-0.00167655944824219,0.000509262084960938,
00:00:03.976,5.7220458984375E-05,-0.00165939331054688,0.000457763671875,
00:00:03.98,5.14984130859375E-05,-0.00165367126464844,0.000486373901367188,
00:00:03.984,5.7220458984375E-05,-0.00164794921875,0.0005035400390625,
00:00:03.988,5.7220458984375E-05,-0.00165939331054688,0.000492095947265625,
00:00:03.992,5.7220458984375E-05,-0.00167083740234375,0.000486373901367188,
00:00:03.996,5.7220458984375E-05,-0.00166511535644531,0.000509262084960938,
00:00:04,5.7220458984375E-05,-0.00165367126464844,0.000497817993164063,
00:00:04.004,6.29425048828125E-05,-0.00166511535644531,0.000514984130859375,
00:00:04.008,6.29425048828125E-05,-0.00167083740234375,0.00048065185546875,
00:00:04.012,5.7220458984375E-05,-0.00166511535644531,0.00048065185546875,
00:00:04.016,5.7220458984375E-05,-0.00165367126464844,0.000509262084960938,
00:00:04.02,5.7220458984375E-05,-0.00165939331054688,0.0005035400390625,
00:00:04.024,5.7220458984375E-05,-0.00166511535644531,0.000497817993164063,
00:00:04.028,5.7220458984375E-05,-0.00166511535644531,0.0005035400390625,
00:00:04.032,5.7220458984375E-05,-0.00165939331054688,0.000514984130859375,
00:00:04.036,6.29425048828125E-05,-0.00165939331054688,0.000474929809570313,
00:00:04.04,5.7220458984375E-05,-0.00166511535644531,0.000474929809570313,
00:00:04.044,5.14984130859375E-05,-0.00166511535644531,0.000492095947265625,
00:00:04.048,6.29425048828125E-05,-0.00167083740234375,0.000583648681640625,
00:00:04.052,8.0108642578125E-05,-0.00167655944824219,0.000583648681640625,
00:00:04.056,5.14984130859375E-05,-0.00165367126464844,0.000446319580078125,
00:00:04.06,5.14984130859375E-05,-0.00165939331054688,0.000452041625976563,
00:00:04.064,5.7220458984375E-05,-0.00165367126464844,0.000497817993164063,
00:00:04.068,5.7220458984375E-05,-0.00165367126464844,0.000514984130859375,
00:00:04.072,5.7220458984375E-05,-0.00166511535644531,0.0005035400390625,
00:00:04.076,5.7220458984375E-05,-0.00167083740234375,0.000474929809570313,
00:00:04.08,6.29425048828125E-05,-0.00166511535644531,0.0005035400390625,
00:00:04.084,5.7220458984375E-05,-0.00165367126464844,0.00052642822265625,
00:00:04.088,5.7220458984375E-05,-0.00165939331054688,0.000497817993164063,
00:00:04.092,5.7220458984375E-05,-0.00167083740234375,0.000469207763671875,
00:00:04.096,6.29425048828125E-05,-0.00167083740234375,0.000509262084960938,
00:00:04.1,6.29425048828125E-05,-0.00166511535644531,0.00052642822265625,
00:00:04.104,5.7220458984375E-05,-0.00165939331054688,0.000492095947265625,
00:00:04.108,5.7220458984375E-05,-0.00166511535644531,0.000474929809570313,
00:00:04.112,5.7220458984375E-05,-0.00166511535644531,0.000492095947265625,
00:00:04.116,5.7220458984375E-05,-0.00165367126464844,0.000514984130859375,
00:00:04.12,5.7220458984375E-05,-0.00165939331054688,0.000514984130859375,
00:00:04.124,6.29425048828125E-05,-0.00167083740234375,0.000492095947265625,
00:00:04.128,6.29425048828125E-05,-0.00167083740234375,0.000497817993164063,
00:00:04.132,6.29425048828125E-05,-0.00165939331054688,0.000543594360351563,
00:00:04.136,6.29425048828125E-05,-0.00165939331054688,0.000532150268554688,
00:00:04.14,6.866455078125E-05,-0.00167655944824219,0.000509262084960938,
00:00:04.144,6.866455078125E-05,-0.00168228149414063,0.00048065185546875,
00:00:04.148,6.866455078125E-05,-0.00167083740234375,0.000492095947265625,
00:00:04.152,5.7220458984375E-05,-0.00165367126464844,0.000532150268554688,
00:00:04.156,5.14984130859375E-05,-0.00165939331054688,0.0005035400390625,
00:00:04.16,6.866455078125E-05,-0.00168228149414063,0.000474929809570313,
00:00:04.164,5.7220458984375E-05,-0.00165939331054688,0.000497817993164063,
00:00:04.168,5.14984130859375E-05,-0.00164222717285156,0.000509262084960938,
00:00:04.172,5.14984130859375E-05,-0.00165939331054688,0.000492095947265625,
00:00:04.176,5.7220458984375E-05,-0.00167083740234375,0.000486373901367188,
00:00:04.18,5.7220458984375E-05,-0.00166511535644531,0.000509262084960938,
00:00:04.184,5.7220458984375E-05,-0.00165367126464844,0.00052642822265625,
00:00:04.188,6.29425048828125E-05,-0.00167083740234375,0.000543594360351563,
00:00:04.192,5.7220458984375E-05,-0.00167083740234375,0.0005035400390625,
00:00:04.196,5.7220458984375E-05,-0.00165939331054688,0.000474929809570313,
00:00:04.2,5.7220458984375E-05,-0.00165367126464844,0.000509262084960938,
00:00:04.204,5.7220458984375E-05,-0.00165939331054688,0.000497817993164063,
00:00:04.208,5.7220458984375E-05,-0.00167083740234375,0.000492095947265625,
00:00:04.212,5.7220458984375E-05,-0.00167083740234375,0.0005035400390625,
00:00:04.216,5.7220458984375E-05,-0.00165939331054688,0.00052642822265625,
00:00:04.22,5.7220458984375E-05,-0.00165939331054688,0.000514984130859375,
00:00:04.224,5.7220458984375E-05,-0.00167083740234375,0.000497817993164063,
00:00:04.228,5.7220458984375E-05,-0.00167083740234375,0.0005035400390625,
00:00:04.232,5.7220458984375E-05,-0.00165939331054688,0.000532150268554688,
00:00:04.236,6.29425048828125E-05,-0.00165939331054688,0.000520706176757813,
00:00:04.24,6.29425048828125E-05,-0.00167083740234375,0.000492095947265625,
00:00:04.244,6.29425048828125E-05,-0.00167655944824219,0.0005035400390625,
00:00:04.248,6.866455078125E-05,-0.00167083740234375,0.000537872314453125,
00:00:04.252,6.29425048828125E-05,-0.00165939331054688,0.000543594360351563,
00:00:04.256,5.14984130859375E-05,-0.00165939331054688,0.0005035400390625,
00:00:04.26,5.7220458984375E-05,-0.00167083740234375,0.000520706176757813,
00:00:04.264,6.29425048828125E-05,-0.00167083740234375,0.000532150268554688,
00:00:04.268,5.7220458984375E-05,-0.00164794921875,0.00048065185546875,
00:00:04.272,6.29425048828125E-05,-0.00166511535644531,0.00048065185546875,
00:00:04.276,6.29425048828125E-05,-0.00167655944824219,0.000520706176757813,
00:00:04.28,5.7220458984375E-05,-0.00166511535644531,0.000532150268554688,
00:00:04.284,5.14984130859375E-05,-0.00165367126464844,0.000520706176757813,
00:00:04.288,5.7220458984375E-05,-0.00166511535644531,0.00052642822265625,
00:00:04.292,6.29425048828125E-05,-0.00167655944824219,0.000486373901367188,
00:00:04.296,5.14984130859375E-05,-0.00165367126464844,0.000486373901367188,
00:00:04.3,5.7220458984375E-05,-0.00165939331054688,0.000537872314453125,
00:00:04.304,6.29425048828125E-05,-0.00166511535644531,0.000514984130859375,
00:00:04.308,5.14984130859375E-05,-0.00166511535644531,0.000486373901367188,
00:00:04.312,5.7220458984375E-05,-0.00166511535644531,0.0005035400390625,
00:00:04.316,5.7220458984375E-05,-0.00165367126464844,0.00052642822265625,
00:00:04.32,5.7220458984375E-05,-0.00165367126464844,0.000520706176757813,
00:00:04.324,5.7220458984375E-05,-0.00166511535644531,0.0005035400390625,
00:00:04.328,5.7220458984375E-05,-0.00167083740234375,0.000509262084960938,
00:00:04.332,6.29425048828125E-05,-0.00166511535644531,0.000532150268554688,
00:00:04.336,6.866455078125E-05,-0.00167083740234375,0.000537872314453125,
00:00:04.34,5.14984130859375E-05,-0.00165939331054688,0.000509262084960938,
00:00:04.344,5.14984130859375E-05,-0.00166511535644531,0.0005035400390625,
00:00:04.348,5.7220458984375E-05,-0.00165939331054688,0.000532150268554688,
00:00:04.352,5.7220458984375E-05,-0.00165367126464844,0.00054931640625,
00:00:04.356,5.7220458984375E-05,-0.00166511535644531,0.000543594360351563,
00:00:04.36,6.29425048828125E-05,-0.00167655944824219,0.0005035400390625,
00:00:04.364,6.29425048828125E-05,-0.00166511535644531,0.00052642822265625,
00:00:04.368,5.7220458984375E-05,-0.00165939331054688,0.000560760498046875,
00:00:04.372,5.7220458984375E-05,-0.00166511535644531,0.0005035400390625,
00:00:04.376,5.7220458984375E-05,-0.00167655944824219,0.000492095947265625,
00:00:04.38,6.29425048828125E-05,-0.00166511535644531,0.00052642822265625,
00:00:04.384,5.7220458984375E-05,-0.00165367126464844,0.000514984130859375,
00:00:04.388,5.7220458984375E-05,-0.00165939331054688,0.000497817993164063,
00:00:04.392,5.7220458984375E-05,-0.00166511535644531,0.000486373901367188,
00:00:04.396,5.7220458984375E-05,-0.00166511535644531,0.000509262084960938,
00:00:04.4,6.29425048828125E-05,-0.00165939331054688,0.00052642822265625,
00:00:04.404,5.7220458984375E-05,-0.00165939331054688,0.000520706176757813,
00:00:04.408,5.7220458984375E-05,-0.00166511535644531,0.000514984130859375,
00:00:04.412,6.29425048828125E-05,-0.00167083740234375,0.000514984130859375,
00:00:04.416,6.29425048828125E-05,-0.00165939331054688,0.00052642822265625,
00:00:04.42,6.29425048828125E-05,-0.00165939331054688,0.000532150268554688,
00:00:04.424,6.866455078125E-05,-0.00167655944824219,0.000555038452148438,
00:00:04.428,6.29425048828125E-05,-0.00167083740234375,0.000532150268554688,
00:00:04.432,5.7220458984375E-05,-0.00165367126464844,0.000532150268554688,
00:00:04.436,6.29425048828125E-05,-0.00165939331054688,0.00052642822265625,
00:00:04.44,6.29425048828125E-05,-0.00167083740234375,0.000492095947265625,
00:00:04.444,5.7220458984375E-05,-0.00167083740234375,0.000486373901367188,
00:00:04.448,6.29425048828125E-05,-0.00165939331054688,0.00054931640625,
00:00:04.452,6.29425048828125E-05,-0.00166511535644531,0.000566482543945313,
00:00:04.456,6.29425048828125E-05,-0.00166511535644531,0.000509262084960938,
00:00:04.46,5.7220458984375E-05,-0.00166511535644531,0.000474929809570313,
00:00:04.464,5.7220458984375E-05,-0.00165939331054688,0.00052642822265625,
00:00:04.468,6.29425048828125E-05,-0.00165939331054688,0.000543594360351563,
00:00:04.472,6.29425048828125E-05,-0.00166511535644531,0.000514984130859375,
00:00:04.476,5.7220458984375E-05,-0.00166511535644531,0.000509262084960938,
00:00:04.48,6.29425048828125E-05,-0.00166511535644531,0.000543594360351563,
00:00:04.484,6.29425048828125E-05,-0.00165939331054688,0.000543594360351563,
00:00:04.488,6.29425048828125E-05,-0.00165939331054688,0.000520706176757813,
00:00:04.492,6.29425048828125E-05,-0.00167083740234375,0.000509262084960938,
00:00:04.496,6.29425048828125E-05,-0.00166511535644531,0.00054931640625,
00:00:04.5,6.29425048828125E-05,-0.00165939331054688,0.000560760498046875,
00:00:04.504,6.29425048828125E-05,-0.00165939331054688,0.000497817993164063,
00:00:04.508,6.29425048828125E-05,-0.00167083740234375,0.000497817993164063,
00:00:04.512,6.29425048828125E-05,-0.00166511535644531,0.000520706176757813,
00:00:04.516,6.29425048828125E-05,-0.00165939331054688,0.000543594360351563,
00:00:04.52,6.29425048828125E-05,-0.00165939331054688,0.00052642822265625,
00:00:04.524,6.29425048828125E-05,-0.00167083740234375,0.000509262084960938,
00:00:04.528,6.29425048828125E-05,-0.00167083740234375,0.00052642822265625,
00:00:04.532,6.29425048828125E-05,-0.00165939331054688,0.000555038452148438,
00:00:04.536,6.866455078125E-05,-0.00166511535644531,0.00057220458984375,
00:00:04.54,7.43865966796875E-05,-0.00168228149414063,0.000537872314453125,
00:00:04.544,8.0108642578125E-05,-0.00168800354003906,0.000509262084960938,
00:00:04.548,6.29425048828125E-05,-0.00165939331054688,0.00052642822265625,
00:00:04.552,5.7220458984375E-05,-0.00165367126464844,0.000577926635742188,
00:00:04.556,5.7220458984375E-05,-0.00165939331054688,0.00054931640625,
00:00:04.56,5.7220458984375E-05,-0.00166511535644531,0.00048065185546875,
00:00:04.564,6.29425048828125E-05,-0.00166511535644531,0.000555038452148438,
00:00:04.568,7.43865966796875E-05,-0.00167083740234375,0.000514984130859375,
00:00:04.572,6.866455078125E-05,-0.00166511535644531,0.0005035400390625,
00:00:04.576,5.7220458984375E-05,-0.00165939331054688,0.000509262084960938,
00:00:04.58,6.29425048828125E-05,-0.00165939331054688,0.000520706176757813,
00:00:04.584,6.29425048828125E-05,-0.00165367126464844,0.000555038452148438,
00:00:04.588,6.29425048828125E-05,-0.00166511535644531,0.000537872314453125,
00:00:04.592,6.29425048828125E-05,-0.00167083740234375,0.0005035400390625,
00:00:04.596,6.866455078125E-05,-0.00167655944824219,0.000520706176757813,
00:00:04.6,6.29425048828125E-05,-0.00165367126464844,0.000555038452148438,
00:00:04.604,5.7220458984375E-05,-0.00165939331054688,0.000532150268554688,
00:00:04.608,6.29425048828125E-05,-0.00167083740234375,0.000520706176757813,
00:00:04.612,6.29425048828125E-05,-0.00166511535644531,0.00052642822265625,
00:00:04.616,6.29425048828125E-05,-0.00165367126464844,0.00054931640625,
00:00:04.62,6.29425048828125E-05,-0.00165939331054688,0.000543594360351563,
00:00:04.624,6.866455078125E-05,-0.00167655944824219,0.000509262084960938,
00:00:04.628,6.29425048828125E-05,-0.00167083740234375,0.00052642822265625,
00:00:04.632,6.866455078125E-05,-0.00166511535644531,0.000537872314453125,
00:00:04.636,7.43865966796875E-05,-0.00167083740234375,0.000532150268554688,
00:00:04.64,6.866455078125E-05,-0.00167655944824219,0.0005950927734375,
00:00:04.644,6.866455078125E-05,-0.00167655944824219,0.00057220458984375,
00:00:04.648,5.7220458984375E-05,-0.00165367126464844,0.0005035400390625,
00:00:04.652,6.29425048828125E-05,-0.00165939331054688,0.00054931640625,
00:00:04.656,6.29425048828125E-05,-0.00166511535644531,0.00061798095703125,
00:00:04.66,6.866455078125E-05,-0.00168228149414063,0.00057220458984375,
00:00:04.664,6.866455078125E-05,-0.00166511535644531,0.000423431396484375,
00:00:04.668,6.29425048828125E-05,-0.00165367126464844,0.000463485717773438,
00:00:04.672,5.7220458984375E-05,-0.00165367126464844,0.0005035400390625,
00:00:04.676,5.14984130859375E-05,-0.00165939331054688,0.000514984130859375,
00:00:04.68,5.7220458984375E-05,-0.00165939331054688,0.00054931640625,
00:00:04.684,6.29425048828125E-05,-0.00165367126464844,0.000583648681640625,
00:00:04.688,5.7220458984375E-05,-0.00165939331054688,0.000520706176757813,
00:00:04.692,6.29425048828125E-05,-0.00167083740234375,0.000486373901367188,
00:00:04.696,5.7220458984375E-05,-0.00165939331054688,0.000537872314453125,
00:00:04.7,6.29425048828125E-05,-0.00165367126464844,0.000560760498046875,
00:00:04.704,6.29425048828125E-05,-0.00165939331054688,0.000589370727539063,
00:00:04.708,5.7220458984375E-05,-0.00166511535644531,0.000560760498046875,
00:00:04.712,5.14984130859375E-05,-0.00166511535644531,0.000497817993164063,
00:00:04.716,3.4332275390625E-05,-0.00164794921875,0.000555038452148438,
00:00:04.72,0,-0.00164222717285156,0.000537872314453125,
00:00:04.724,5.7220458984375E-05,-0.00167083740234375,0.000514984130859375,
00:00:04.728,9.72747802734375E-05,-0.00170516967773438,0.000555038452148438,
00:00:04.732,0.000102996826171875,-0.0016937255859375,0.000623703002929688,
00:00:04.736,0.000108718872070313,-0.00174522399902344,0.000623703002929688,
00:00:04.74,6.29425048828125E-05,-0.0016937255859375,0.000509262084960938,
00:00:04.744,3.4332275390625E-05,-0.00161361694335938,0.000514984130859375,
00:00:04.748,5.7220458984375E-05,-0.00163078308105469,0.000583648681640625,
00:00:04.752,6.866455078125E-05,-0.00165367126464844,0.000640869140625,
00:00:04.756,6.866455078125E-05,-0.00167083740234375,0.00054931640625,
00:00:04.76,6.29425048828125E-05,-0.00166511535644531,0.000509262084960938,
00:00:04.764,6.29425048828125E-05,-0.00164794921875,0.000492095947265625,
00:00:04.768,5.14984130859375E-05,-0.00163650512695313,0.000463485717773438,
00:00:04.772,8.0108642578125E-05,-0.00167655944824219,0.000532150268554688,
00:00:04.776,7.43865966796875E-05,-0.00168800354003906,0.000692367553710938,
00:00:04.78,6.29425048828125E-05,-0.00167083740234375,0.0006866455078125,
00:00:04.784,4.57763671875E-05,-0.00164794921875,0.000446319580078125,
00:00:04.788,7.43865966796875E-05,-0.00165939331054688,0.000463485717773438,
00:00:04.792,8.0108642578125E-05,-0.00165939331054688,0.000497817993164063,
00:00:04.796,6.866455078125E-05,-0.00165367126464844,0.000555038452148438,
00:00:04.8,6.866455078125E-05,-0.00165367126464844,0.000520706176757813,
00:00:04.804,8.58306884765625E-05,-0.00168800354003906,0.000555038452148438,
00:00:04.808,9.1552734375E-05,-0.00171661376953125,0.00057220458984375,
00:00:04.812,-2.86102294921875E-05,-0.00158500671386719,0.000474929809570313,
00:00:04.816,5.7220458984375E-05,-0.00165939331054688,0.000543594360351563,
00:00:04.82,0.000102996826171875,-0.00166511535644531,0.000555038452148438,
00:00:04.824,8.0108642578125E-05,-0.00168228149414063,0.000537872314453125,
00:00:04.828,9.72747802734375E-05,-0.00171089172363281,0.000600814819335938,
00:00:04.832,5.7220458984375E-05,-0.00167083740234375,0.000629425048828125,
00:00:04.836,1.1444091796875E-05,-0.00165367126464844,0.000612258911132813,
00:00:04.84,1.71661376953125E-05,-0.00165367126464844,0.000452041625976563,
00:00:04.844,0.000108718872070313,-0.00167655944824219,0.000440597534179688,
00:00:04.848,9.72747802734375E-05,-0.00167655944824219,0.000629425048828125,
00:00:04.852,4.00543212890625E-05,-0.00160789489746094,0.000452041625976563,
00:00:04.856,5.14984130859375E-05,-0.00165939331054688,0.000394821166992188,
00:00:04.86,2.86102294921875E-05,-0.00165367126464844,0.000492095947265625,
00:00:04.864,9.72747802734375E-05,-0.00167083740234375,0.000520706176757813,
00:00:04.868,0.000102996826171875,-0.00167083740234375,0.000669479370117188,
00:00:04.872,8.0108642578125E-05,-0.00167083740234375,0.000640869140625,
00:00:04.876,2.86102294921875E-05,-0.00161361694335938,0.000354766845703125,
00:00:04.88,2.288818359375E-05,-0.00161933898925781,0.00034332275390625,
00:00:04.884,9.1552734375E-05,-0.0016937255859375,0.000675201416015625,
00:00:04.888,8.0108642578125E-05,-0.00168228149414063,0.000635147094726563,
00:00:04.892,6.29425048828125E-05,-0.00165367126464844,0.000349044799804688,
00:00:04.896,4.57763671875E-05,-0.00162506103515625,0.000400543212890625,
00:00:04.9,1.1444091796875E-05,-0.00158500671386719,0.00038909912109375,
00:00:04.904,9.1552734375E-05,-0.00172233581542969,0.000532150268554688,
00:00:04.908,5.7220458984375E-05,-0.00170516967773438,0.000698089599609375,
00:00:04.912,-5.14984130859375E-05,-0.00164222717285156,0.000509262084960938,
00:00:04.916,-4.00543212890625E-05,-0.00171089172363281,0.000291824340820313,
00:00:04.92,0.000102996826171875,-0.00165939331054688,0.000429153442382813,
00:00:04.924,0.000125885009765625,-0.00162506103515625,0.000463485717773438,
00:00:04.928,8.58306884765625E-05,-0.00165367126464844,0.00057220458984375,
00:00:04.932,1.1444091796875E-05,-0.0016021728515625,0.0005035400390625,
00:00:04.936,-6.29425048828125E-05,-0.00157928466796875,0.000446319580078125,
00:00:04.94,-5.7220458984375E-06,-0.00165939331054688,0.000532150268554688,
00:00:04.944,2.86102294921875E-05,-0.00162506103515625,0.000349044799804688,
00:00:04.948,0.000102996826171875,-0.0016937255859375,0.00054931640625,
00:00:04.952,8.58306884765625E-05,-0.00165367126464844,0.000886917114257813,
00:00:04.956,0,-0.00157928466796875,0.00034332275390625,
00:00:04.96,-5.7220458984375E-06,-0.00157356262207031,0.000154495239257813,
00:00:04.964,8.58306884765625E-05,-0.00167655944824219,0.000532150268554688,
00:00:04.968,7.43865966796875E-05,-0.00166511535644531,0.000703811645507813,
00:00:04.972,-5.7220458984375E-06,-0.00159645080566406,0.000543594360351563,
00:00:04.976,-2.288818359375E-05,-0.00159072875976563,0.000354766845703125,
00:00:04.98,7.43865966796875E-05,-0.00166511535644531,0.000469207763671875,
00:00:04.984,4.00543212890625E-05,-0.00160789489746094,0.000429153442382813,
00:00:04.988,5.14984130859375E-05,-0.00166511535644531,0.000577926635742188,
00:00:04.992,-0.00011444091796875,-0.00157928466796875,0.0005035400390625,
00:00:04.996,0,-0.00168228149414063,0.00048065185546875,
00:00:05,8.0108642578125E-05,-0.00162506103515625,0.000394821166992188,
00:00:05.004,7.43865966796875E-05,-0.00161933898925781,0.000514984130859375,
00:00:05.008,-6.29425048828125E-05,-0.00153923034667969,0.000303268432617188,
00:00:05.012,0.000108718872070313,-0.00172233581542969,0.0007781982421875,
00:00:05.016,2.288818359375E-05,-0.00162506103515625,0.000675201416015625,
00:00:05.02,-5.14984130859375E-05,-0.00159072875976563,0.000240325927734375,
00:00:05.024,7.43865966796875E-05,-0.00173377990722656,0.000463485717773438,
00:00:05.028,1.71661376953125E-05,-0.00159645080566406,0.000532150268554688,
00:00:05.032,-3.4332275390625E-05,-0.00153923034667969,0.00043487548828125,
00:00:05.036,5.7220458984375E-05,-0.00168800354003906,0.000583648681640625,
00:00:05.04,-8.0108642578125E-05,-0.00165939331054688,0.000497817993164063,
00:00:05.044,-5.7220458984375E-06,-0.00162506103515625,0.000463485717773438,
00:00:05.048,0.000143051147460938,-0.00165939331054688,0.000520706176757813,
00:00:05.052,4.57763671875E-05,-0.0016021728515625,0.000486373901367188,
00:00:05.056,5.14984130859375E-05,-0.00164794921875,0.0005950927734375,
00:00:05.06,5.14984130859375E-05,-0.00165939331054688,0.000680923461914063,
00:00:05.064,1.1444091796875E-05,-0.0016021728515625,0.0005035400390625,
00:00:05.068,-1.71661376953125E-05,-0.00159072875976563,0.000371932983398438,
00:00:05.072,8.0108642578125E-05,-0.00167083740234375,0.000583648681640625,
00:00:05.076,7.43865966796875E-05,-0.00167655944824219,0.000492095947265625,
00:00:05.08,5.7220458984375E-05,-0.00165367126464844,0.000509262084960938,
00:00:05.084,4.57763671875E-05,-0.00164222717285156,0.000669479370117188,
00:00:05.088,2.86102294921875E-05,-0.00164222717285156,0.000555038452148438,
00:00:05.092,0,-0.00159072875976563,0.000457763671875,
00:00:05.096,2.288818359375E-05,-0.00162506103515625,0.00043487548828125,
00:00:05.1,8.0108642578125E-05,-0.00168228149414063,0.000543594360351563,
00:00:05.104,5.7220458984375E-06,-0.00161933898925781,0.00038909912109375,
00:00:05.108,0.000125885009765625,-0.001739501953125,0.000635147094726563,
00:00:05.112,5.7220458984375E-05,-0.00167655944824219,0.000635147094726563,
00:00:05.116,-4.00543212890625E-05,-0.0016021728515625,0.000537872314453125,
00:00:05.12,1.71661376953125E-05,-0.00164794921875,0.000446319580078125,
00:00:05.124,8.0108642578125E-05,-0.00168800354003906,0.000600814819335938,
00:00:05.128,8.58306884765625E-05,-0.00166511535644531,0.000623703002929688,
00:00:05.132,6.866455078125E-05,-0.00164794921875,0.00057220458984375,
00:00:05.136,-1.1444091796875E-05,-0.00159072875976563,0.000566482543945313,
00:00:05.14,-5.7220458984375E-06,-0.00161361694335938,0.000423431396484375,
00:00:05.144,6.866455078125E-05,-0.00165367126464844,0.000543594360351563,
00:00:05.148,5.7220458984375E-05,-0.00165367126464844,0.000589370727539063,
00:00:05.152,8.58306884765625E-05,-0.0016937255859375,0.000726699829101563,
00:00:05.156,5.7220458984375E-05,-0.00167083740234375,0.0005035400390625,
00:00:05.16,2.288818359375E-05,-0.00162506103515625,0.00038909912109375,
00:00:05.164,8.0108642578125E-05,-0.00166511535644531,0.000577926635742188,
00:00:05.168,3.4332275390625E-05,-0.00160789489746094,0.000514984130859375,
00:00:05.172,4.57763671875E-05,-0.00165939331054688,0.000555038452148438,
00:00:05.176,2.86102294921875E-05,-0.00167655944824219,0.00066375732421875,
00:00:05.18,1.71661376953125E-05,-0.00163650512695313,0.000600814819335938,
00:00:05.184,3.4332275390625E-05,-0.00161933898925781,0.000406265258789063,
00:00:05.188,0.000108718872070313,-0.0016937255859375,0.000474929809570313,
00:00:05.192,9.1552734375E-05,-0.00173377990722656,0.000640869140625,
00:00:05.196,4.57763671875E-05,-0.00171661376953125,0.000600814819335938,
00:00:05.2,1.71661376953125E-05,-0.00157928466796875,0.0005035400390625,
00:00:05.204,-5.7220458984375E-06,-0.00156211853027344,0.000423431396484375,
00:00:05.208,0.000131607055664063,-0.001739501953125,0.000606536865234375,
00:00:05.212,9.1552734375E-05,-0.00168228149414063,0.000652313232421875,
00:00:05.216,5.14984130859375E-05,-0.00167083740234375,0.000646591186523438,
00:00:05.22,6.866455078125E-05,-0.0016937255859375,0.00061798095703125,
00:00:05.224,2.288818359375E-05,-0.00167083740234375,0.000555038452148438,
00:00:05.228,9.1552734375E-05,-0.00165939331054688,0.000514984130859375,
00:00:05.232,0.000102996826171875,-0.00167655944824219,0.00070953369140625,
00:00:05.236,7.43865966796875E-05,-0.00165939331054688,0.00066375732421875,
00:00:05.24,6.866455078125E-05,-0.00165939331054688,0.000589370727539063,
00:00:05.244,6.866455078125E-05,-0.00166511535644531,0.000537872314453125,
00:00:05.248,7.43865966796875E-05,-0.00167083740234375,0.000589370727539063,
00:00:05.252,7.43865966796875E-05,-0.00167083740234375,0.0006866455078125,
00:00:05.256,7.43865966796875E-05,-0.00167083740234375,0.000514984130859375,
00:00:05.26,7.43865966796875E-05,-0.00167083740234375,0.000474929809570313,
00:00:05.264,6.866455078125E-05,-0.00165939331054688,0.000555038452148438,
00:00:05.268,7.43865966796875E-05,-0.00166511535644531,0.00066375732421875,
00:00:05.272,0.000102996826171875,-0.00171661376953125,0.000646591186523438,
00:00:05.276,8.0108642578125E-05,-0.00171089172363281,0.000452041625976563,
00:00:05.28,-5.7220458984375E-06,-0.00159645080566406,0.000520706176757813,
00:00:05.284,8.58306884765625E-05,-0.00166511535644531,0.000823974609375,
00:00:05.288,8.58306884765625E-05,-0.00168228149414063,0.000652313232421875,
00:00:05.292,8.0108642578125E-05,-0.00167655944824219,0.000560760498046875,
00:00:05.296,5.7220458984375E-05,-0.00166511535644531,0.000606536865234375,
00:00:05.3,4.00543212890625E-05,-0.00171661376953125,0.000600814819335938,
00:00:05.304,9.1552734375E-05,-0.00170516967773438,0.00048065185546875,
00:00:05.308,6.866455078125E-05,-0.00162506103515625,0.000509262084960938,
00:00:05.312,9.72747802734375E-05,-0.00166511535644531,0.000560760498046875,
00:00:05.316,0.000102996826171875,-0.00168228149414063,0.000566482543945313,
00:00:05.32,0.000102996826171875,-0.00168800354003906,0.00052642822265625,
00:00:05.324,8.58306884765625E-05,-0.00168228149414063,0.000474929809570313,
00:00:05.328,8.0108642578125E-05,-0.00167655944824219,0.000463485717773438,
00:00:05.332,6.29425048828125E-05,-0.00164222717285156,0.00066375732421875,
00:00:05.336,5.7220458984375E-05,-0.00163650512695313,0.000577926635742188,
00:00:05.34,6.29425048828125E-05,-0.00165367126464844,0.000612258911132813,
00:00:05.344,7.43865966796875E-05,-0.00167083740234375,0.000652313232421875,
00:00:05.348,9.72747802734375E-05,-0.00168800354003906,0.000520706176757813,
00:00:05.352,0.000120162963867188,-0.00172233581542969,0.000331878662109375,
00:00:05.356,9.1552734375E-05,-0.00168800354003906,0.000394821166992188,
00:00:05.36,7.43865966796875E-05,-0.00167083740234375,0.00057220458984375,
00:00:05.364,6.866455078125E-05,-0.00166511535644531,0.000537872314453125,
00:00:05.368,6.866455078125E-05,-0.00164222717285156,0.000463485717773438,
00:00:05.372,4.57763671875E-05,-0.00161933898925781,0.00066375732421875,
00:00:05.376,4.00543212890625E-05,-0.00165367126464844,0.000715255737304688,
00:00:05.38,7.43865966796875E-05,-0.00170516967773438,0.000560760498046875,
00:00:05.384,0.000102996826171875,-0.00171661376953125,0.000543594360351563,
00:00:05.388,0.000143051147460938,-0.00173377990722656,0.000457763671875,
00:00:05.392,8.0108642578125E-05,-0.00163078308105469,0.000440597534179688,
00:00:05.396,1.71661376953125E-05,-0.00159072875976563,0.00057220458984375,
00:00:05.4,2.288818359375E-05,-0.00163650512695313,0.000646591186523438,
00:00:05.404,5.7220458984375E-06,-0.00164222717285156,0.000675201416015625,
00:00:05.408,0.000154495239257813,-0.00172233581542969,0.00080108642578125,
00:00:05.412,0.000148773193359375,-0.001739501953125,0.000692367553710938,
00:00:05.416,5.7220458984375E-05,-0.00161933898925781,0.000331878662109375,
00:00:05.42,3.4332275390625E-05,-0.00158500671386719,0.0005035400390625,
00:00:05.424,6.866455078125E-05,-0.00164222717285156,0.000509262084960938,
00:00:05.428,8.58306884765625E-05,-0.00167655944824219,0.000560760498046875,
00:00:05.432,0.000102996826171875,-0.0016937255859375,0.000537872314453125,
00:00:05.436,7.43865966796875E-05,-0.00165367126464844,0.000577926635742188,
00:00:05.44,6.29425048828125E-05,-0.00163650512695313,0.000583648681640625,
00:00:05.444,6.29425048828125E-05,-0.00164794921875,0.000474929809570313,
00:00:05.448,6.29425048828125E-05,-0.00164222717285156,0.000612258911132813,
00:00:05.452,7.43865966796875E-05,-0.00164222717285156,0.000589370727539063,
00:00:05.456,8.58306884765625E-05,-0.00167083740234375,0.000589370727539063,
00:00:05.46,9.1552734375E-05,-0.00168800354003906,0.0005950927734375,
00:00:05.464,9.1552734375E-05,-0.00167655944824219,0.000566482543945313,
00:00:05.468,0.000108718872070313,-0.00170516967773438,0.000669479370117188,
00:00:05.472,0.000108718872070313,-0.00172233581542969,0.000543594360351563,
00:00:05.476,5.14984130859375E-05,-0.00165367126464844,0.000583648681640625,
00:00:05.48,6.866455078125E-05,-0.00167083740234375,0.000629425048828125,
00:00:05.484,0.000120162963867188,-0.00167655944824219,0.000486373901367188,
00:00:05.488,6.29425048828125E-05,-0.00164222717285156,0.0005035400390625,
00:00:05.492,9.72747802734375E-05,-0.00167655944824219,0.000543594360351563,
00:00:05.496,7.43865966796875E-05,-0.00168228149414063,0.000680923461914063,
00:00:05.5,6.29425048828125E-05,-0.00165367126464844,0.000675201416015625,
00:00:05.504,0.000102996826171875,-0.00165367126464844,0.000514984130859375,
00:00:05.508,0.00011444091796875,-0.0016937255859375,0.000406265258789063,
00:00:05.512,7.43865966796875E-05,-0.00163650512695313,0.000509262084960938,
00:00:05.516,6.866455078125E-05,-0.00163078308105469,0.000532150268554688,
00:00:05.52,8.0108642578125E-05,-0.00165939331054688,0.000646591186523438,
00:00:05.524,8.0108642578125E-05,-0.00167655944824219,0.000629425048828125,
00:00:05.528,8.0108642578125E-05,-0.00167655944824219,0.000452041625976563,
00:00:05.532,8.0108642578125E-05,-0.00167655944824219,0.000537872314453125,
00:00:05.536,9.1552734375E-05,-0.00167083740234375,0.00057220458984375,
00:00:05.54,0.000102996826171875,-0.00165367126464844,0.00054931640625,
00:00:05.544,9.1552734375E-05,-0.00167083740234375,0.000555038452148438,
00:00:05.548,9.1552734375E-05,-0.00167083740234375,0.000600814819335938,
00:00:05.552,9.1552734375E-05,-0.00167655944824219,0.00066375732421875,
00:00:05.556,0.00011444091796875,-0.00171661376953125,0.00066375732421875,
00:00:05.56,0.00011444091796875,-0.00170516967773438,0.000635147094726563,
00:00:05.564,6.866455078125E-05,-0.00164222717285156,0.000474929809570313,
00:00:05.568,8.0108642578125E-05,-0.00165367126464844,0.0005035400390625,
00:00:05.572,0.000108718872070313,-0.00169944763183594,0.000583648681640625,
00:00:05.576,0.0001373291015625,-0.001739501953125,0.000652313232421875,
00:00:05.58,5.14984130859375E-05,-0.00163650512695313,0.000566482543945313,
00:00:05.584,9.1552734375E-05,-0.00169944763183594,0.000583648681640625,
00:00:05.588,0.0001373291015625,-0.00171661376953125,0.000474929809570313,
00:00:05.592,8.0108642578125E-05,-0.00163650512695313,0.00054931640625,
00:00:05.596,8.0108642578125E-05,-0.00165367126464844,0.000532150268554688,
00:00:05.6,9.1552734375E-05,-0.00166511535644531,0.00057220458984375,
00:00:05.604,9.72747802734375E-05,-0.00167083740234375,0.000566482543945313,
00:00:05.608,0.000102996826171875,-0.00168800354003906,0.000560760498046875,
00:00:05.612,0.000102996826171875,-0.00168800354003906,0.0005950927734375,
00:00:05.616,0.00011444091796875,-0.00171089172363281,0.000669479370117188,
00:00:05.62,9.72747802734375E-05,-0.0016937255859375,0.000715255737304688,
00:00:05.624,9.1552734375E-05,-0.00166511535644531,0.000555038452148438,
00:00:05.628,0.000108718872070313,-0.00168228149414063,0.000457763671875,
00:00:05.632,9.1552734375E-05,-0.00165939331054688,0.000497817993164063,
00:00:05.636,9.1552734375E-05,-0.00165939331054688,0.000537872314453125,
00:00:05.64,9.72747802734375E-05,-0.00168228149414063,0.000560760498046875,
00:00:05.644,0.000125885009765625,-0.00171089172363281,0.000652313232421875,
00:00:05.648,0.000125885009765625,-0.00171661376953125,0.000698089599609375,
00:00:05.652,0.000108718872070313,-0.00171661376953125,0.000446319580078125,
00:00:05.656,9.1552734375E-05,-0.00166511535644531,0.000446319580078125,
00:00:05.66,8.0108642578125E-05,-0.00164222717285156,0.00054931640625,
00:00:05.664,0.000108718872070313,-0.00167655944824219,0.000589370727539063,
00:00:05.668,0.000108718872070313,-0.00167083740234375,0.0005950927734375,
00:00:05.672,0.000108718872070313,-0.00168800354003906,0.000532150268554688,
00:00:05.676,0.000108718872070313,-0.00172805786132813,0.000589370727539063,
00:00:05.68,9.72747802734375E-05,-0.0016937255859375,0.000652313232421875,
00:00:05.684,0.00011444091796875,-0.00165939331054688,0.000497817993164063,
00:00:05.688,9.1552734375E-05,-0.00165939331054688,0.00052642822265625,
00:00:05.692,0.000102996826171875,-0.00168800354003906,0.000560760498046875,
00:00:05.696,0.00011444091796875,-0.00168228149414063,0.000532150268554688,
00:00:05.7,0.000108718872070313,-0.00167083740234375,0.00057220458984375,
00:00:05.704,0.000108718872070313,-0.00168228149414063,0.0005950927734375,
00:00:05.708,0.000108718872070313,-0.00169944763183594,0.000635147094726563,
00:00:05.712,0.000120162963867188,-0.00170516967773438,0.000635147094726563,
00:00:05.716,0.00011444091796875,-0.0016937255859375,0.000560760498046875,
00:00:05.72,0.000102996826171875,-0.00167655944824219,0.000463485717773438,
00:00:05.724,0.000102996826171875,-0.00168800354003906,0.0005035400390625,
00:00:05.728,0.000108718872070313,-0.0016937255859375,0.000583648681640625,
00:00:05.732,0.000102996826171875,-0.00167655944824219,0.000635147094726563,
00:00:05.736,0.00011444091796875,-0.00168800354003906,0.000600814819335938,
00:00:05.74,0.000120162963867188,-0.00171089172363281,0.000543594360351563,
00:00:05.744,0.000108718872070313,-0.00170516967773438,0.000555038452148438,
00:00:05.748,0.000108718872070313,-0.00171089172363281,0.000537872314453125,
00:00:05.752,8.0108642578125E-05,-0.00165939331054688,0.000543594360351563,
00:00:05.756,0.000120162963867188,-0.00168800354003906,0.00054931640625,
00:00:05.76,0.000108718872070313,-0.00167083740234375,0.000537872314453125,
00:00:05.764,9.1552734375E-05,-0.00167083740234375,0.000583648681640625,
00:00:05.768,0.000102996826171875,-0.0016937255859375,0.000612258911132813,
00:00:05.772,0.000131607055664063,-0.00169944763183594,0.000658035278320313,
00:00:05.776,0.00011444091796875,-0.00168228149414063,0.000469207763671875,
00:00:05.78,0.00011444091796875,-0.00168228149414063,0.000566482543945313,
00:00:05.784,0.000102996826171875,-0.00167655944824219,0.000612258911132813,
00:00:05.788,0.000102996826171875,-0.0016937255859375,0.000640869140625,
00:00:05.792,0.000120162963867188,-0.00171089172363281,0.000555038452148438,
00:00:05.796,0.000125885009765625,-0.0016937255859375,0.00048065185546875,
00:00:05.8,0.000154495239257813,-0.00172805786132813,0.0005950927734375,
00:00:05.804,9.72747802734375E-05,-0.00165939331054688,0.000514984130859375,
00:00:05.808,8.0108642578125E-05,-0.00165367126464844,0.0005035400390625,
00:00:05.812,0.000102996826171875,-0.00168228149414063,0.00052642822265625,
00:00:05.816,0.00011444091796875,-0.00168800354003906,0.00054931640625,
00:00:05.82,0.000120162963867188,-0.00169944763183594,0.00054931640625,
00:00:05.824,0.000102996826171875,-0.0016937255859375,0.000566482543945313,
00:00:05.828,9.72747802734375E-05,-0.00168228149414063,0.000606536865234375,
00:00:05.832,0.000120162963867188,-0.00168228149414063,0.000646591186523438,
00:00:05.836,0.000108718872070313,-0.00168228149414063,0.000577926635742188,
00:00:05.84,0.00011444091796875,-0.00168800354003906,0.000486373901367188,
00:00:05.844,0.000108718872070313,-0.00168800354003906,0.000492095947265625,
00:00:05.848,9.1552734375E-05,-0.00168228149414063,0.00061798095703125,
00:00:05.852,0.000102996826171875,-0.00168228149414063,0.000629425048828125,
00:00:05.856,0.0001373291015625,-0.00170516967773438,0.000509262084960938,
00:00:05.86,0.000102996826171875,-0.00168228149414063,0.000509262084960938,
00:00:05.864,0.000108718872070313,-0.00168228149414063,0.000566482543945313,
00:00:05.868,0.000102996826171875,-0.00168800354003906,0.000646591186523438,
00:00:05.872,0.000131607055664063,-0.00172805786132813,0.000635147094726563,
00:00:05.876,0.000165939331054688,-0.00172805786132813,0.00052642822265625,
00:00:05.88,9.72747802734375E-05,-0.00166511535644531,0.00054931640625,
00:00:05.884,9.1552734375E-05,-0.00166511535644531,0.000560760498046875,
00:00:05.888,0.00011444091796875,-0.00167655944824219,0.000532150268554688,
00:00:05.892,0.00011444091796875,-0.00168800354003906,0.000509262084960938,
00:00:05.896,0.00011444091796875,-0.0016937255859375,0.000560760498046875,
00:00:05.9,0.00011444091796875,-0.0016937255859375,0.000600814819335938,
00:00:05.904,0.00011444091796875,-0.0016937255859375,0.00054931640625,
00:00:05.908,0.000154495239257813,-0.00172805786132813,0.0005950927734375,
00:00:05.912,0.000102996826171875,-0.00166511535644531,0.000543594360351563,
00:00:05.916,9.72747802734375E-05,-0.00165939331054688,0.000537872314453125,
00:00:05.92,9.1552734375E-05,-0.00167655944824219,0.000537872314453125,
00:00:05.924,0.000102996826171875,-0.0016937255859375,0.000583648681640625,
00:00:05.928,0.000148773193359375,-0.00172233581542969,0.000560760498046875,
00:00:05.932,0.000120162963867188,-0.00167655944824219,0.000606536865234375,
00:00:05.936,0.000120162963867188,-0.00168228149414063,0.000589370727539063,
00:00:05.94,0.00011444091796875,-0.00168800354003906,0.000555038452148438,
00:00:05.944,8.0108642578125E-05,-0.00168228149414063,0.000532150268554688,
00:00:05.948,0.000108718872070313,-0.00168228149414063,0.000514984130859375,
00:00:05.952,0.0001373291015625,-0.00168228149414063,0.000583648681640625,
00:00:05.956,0.000120162963867188,-0.0016937255859375,0.000537872314453125,
00:00:05.96,0.00011444091796875,-0.00170516967773438,0.000577926635742188,
00:00:05.964,0.000125885009765625,-0.00168800354003906,0.000583648681640625,
00:00:05.968,0.000125885009765625,-0.00167655944824219,0.000555038452148438,
00:00:05.972,0.000120162963867188,-0.00168800354003906,0.000543594360351563,
00:00:05.976,0.000120162963867188,-0.00169944763183594,0.000520706176757813,
00:00:05.98,0.000131607055664063,-0.00170516967773438,0.0005950927734375,
00:00:05.984,0.000125885009765625,-0.00168800354003906,0.000635147094726563,
00:00:05.988,0.000108718872070313,-0.00167083740234375,0.000532150268554688,
00:00:05.992,0.00011444091796875,-0.0016937255859375,0.000509262084960938,
00:00:05.996,0.000120162963867188,-0.0016937255859375,0.00054931640625,
00:00:06,0.000125885009765625,-0.0016937255859375,0.00061798095703125,
00:00:06.004,0.00011444091796875,-0.0016937255859375,0.000726699829101563,
00:00:06.008,0.00011444091796875,-0.00171661376953125,0.000583648681640625,
00:00:06.012,0.00011444091796875,-0.001739501953125,0.00043487548828125,
00:00:06.016,0.000188827514648438,-0.001739501953125,0.000543594360351563,
00:00:06.02,8.58306884765625E-05,-0.00161361694335938,0.000514984130859375,
00:00:06.024,9.1552734375E-05,-0.00165939331054688,0.000543594360351563,
00:00:06.028,9.1552734375E-05,-0.00168228149414063,0.000520706176757813,
00:00:06.032,0.000108718872070313,-0.00167655944824219,0.00054931640625,
00:00:06.036,0.000143051147460938,-0.00168800354003906,0.000583648681640625,
00:00:06.04,0.000120162963867188,-0.0016937255859375,0.00057220458984375,
00:00:06.044,0.000125885009765625,-0.00170516967773438,0.000532150268554688,
00:00:06.048,0.0001373291015625,-0.0016937255859375,0.000555038452148438,
00:00:06.052,0.000125885009765625,-0.00168228149414063,0.000589370727539063,
00:00:06.056,0.000125885009765625,-0.0016937255859375,0.000560760498046875,
00:00:06.06,0.000120162963867188,-0.0016937255859375,0.000566482543945313,
00:00:06.064,0.000120162963867188,-0.00168800354003906,0.000583648681640625,
00:00:06.068,0.000120162963867188,-0.00168228149414063,0.000566482543945313,
00:00:06.072,0.000125885009765625,-0.0016937255859375,0.000520706176757813,
00:00:06.076,0.0001373291015625,-0.00171661376953125,0.000514984130859375,
00:00:06.08,0.000120162963867188,-0.00168800354003906,0.000566482543945313,
00:00:06.084,0.000120162963867188,-0.00167655944824219,0.000669479370117188,
00:00:06.088,0.00011444091796875,-0.0016937255859375,0.0005950927734375,
00:00:06.092,9.72747802734375E-05,-0.00168800354003906,0.000463485717773438,
00:00:06.096,0.000131607055664063,-0.0016937255859375,0.000537872314453125,
00:00:06.1,0.000131607055664063,-0.00168800354003906,0.00057220458984375,
00:00:06.104,0.000131607055664063,-0.00170516967773438,0.000560760498046875,
00:00:06.108,0.000154495239257813,-0.00172233581542969,0.000537872314453125,
00:00:06.112,0.000108718872070313,-0.00167655944824219,0.000583648681640625,
00:00:06.116,0.000125885009765625,-0.00168228149414063,0.000577926635742188,
00:00:06.12,0.000120162963867188,-0.00167655944824219,0.00054931640625,
00:00:06.124,0.000125885009765625,-0.00169944763183594,0.0005035400390625,
00:00:06.128,0.000154495239257813,-0.00175666809082031,0.000555038452148438,
00:00:06.132,0.00016021728515625,-0.00171661376953125,0.000669479370117188,
00:00:06.136,0.00011444091796875,-0.00168228149414063,0.000726699829101563,
00:00:06.14,0.000120162963867188,-0.0016937255859375,0.000486373901367188,
00:00:06.144,8.0108642578125E-05,-0.00164794921875,0.000446319580078125,
00:00:06.148,0.000125885009765625,-0.00167083740234375,0.000543594360351563,
00:00:06.152,0.000131607055664063,-0.00168228149414063,0.000543594360351563,
00:00:06.156,0.00011444091796875,-0.00168800354003906,0.000560760498046875,
00:00:06.16,0.0001373291015625,-0.00169944763183594,0.000543594360351563,
00:00:06.164,0.0001373291015625,-0.00168800354003906,0.000555038452148438,
00:00:06.168,0.000120162963867188,-0.00168800354003906,0.000606536865234375,
00:00:06.172,0.000125885009765625,-0.00169944763183594,0.0005950927734375,
00:00:06.176,0.000143051147460938,-0.00171661376953125,0.000566482543945313,
00:00:06.18,0.000148773193359375,-0.00171089172363281,0.000543594360351563,
00:00:06.184,0.000120162963867188,-0.00167083740234375,0.00054931640625,
00:00:06.188,0.000120162963867188,-0.00167655944824219,0.00052642822265625,
00:00:06.192,0.000120162963867188,-0.00168800354003906,0.000537872314453125,
00:00:06.196,0.000131607055664063,-0.0016937255859375,0.000566482543945313,
00:00:06.2,0.000131607055664063,-0.00168800354003906,0.000577926635742188,
00:00:06.204,0.000131607055664063,-0.0016937255859375,0.00054931640625,
00:00:06.208,0.0001373291015625,-0.00171089172363281,0.00057220458984375,
00:00:06.212,0.000131607055664063,-0.00170516967773438,0.0005950927734375,
00:00:06.216,0.000125885009765625,-0.0016937255859375,0.000646591186523438,
00:00:06.22,0.000131607055664063,-0.00168800354003906,0.000532150268554688,
00:00:06.224,0.000143051147460938,-0.00171661376953125,0.000537872314453125,
00:00:06.228,9.1552734375E-05,-0.00168800354003906,0.00057220458984375,
00:00:06.232,0.00011444091796875,-0.00168800354003906,0.000629425048828125,
00:00:06.236,0.000148773193359375,-0.00168800354003906,0.000514984130859375,
00:00:06.24,0.0001373291015625,-0.00168228149414063,0.000532150268554688,
00:00:06.244,0.0001373291015625,-0.0016937255859375,0.000537872314453125,
00:00:06.248,0.000131607055664063,-0.00168800354003906,0.000537872314453125,
00:00:06.252,0.000120162963867188,-0.00168228149414063,0.000532150268554688,
00:00:06.256,0.000125885009765625,-0.0016937255859375,0.00052642822265625,
00:00:06.26,0.000165939331054688,-0.00175094604492188,0.0005950927734375,
00:00:06.264,0.000171661376953125,-0.00174522399902344,0.000612258911132813,
00:00:06.268,0.000125885009765625,-0.00167083740234375,0.00054931640625,
00:00:06.272,0.00011444091796875,-0.00165939331054688,0.000509262084960938,
00:00:06.276,0.000120162963867188,-0.00167655944824219,0.000492095947265625,
00:00:06.28,0.000125885009765625,-0.00168228149414063,0.000555038452148438,
00:00:06.284,0.000131607055664063,-0.00168228149414063,0.000606536865234375,
00:00:06.288,0.000131607055664063,-0.0016937255859375,0.000612258911132813,
00:00:06.292,0.000131607055664063,-0.00169944763183594,0.000543594360351563,
00:00:06.296,0.000120162963867188,-0.0016937255859375,0.000520706176757813,
00:00:06.3,0.000125885009765625,-0.00169944763183594,0.000606536865234375,
00:00:06.304,0.000154495239257813,-0.0016937255859375,0.000543594360351563,
00:00:06.308,0.000131607055664063,-0.00168800354003906,0.000492095947265625,
00:00:06.312,0.000131607055664063,-0.0016937255859375,0.00054931640625,
00:00:06.316,0.000131607055664063,-0.00168228149414063,0.000577926635742188,
00:00:06.32,0.000143051147460938,-0.00169944763183594,0.000600814819335938,
00:00:06.324,0.000143051147460938,-0.00171089172363281,0.000560760498046875,
00:00:06.328,0.00011444091796875,-0.00168800354003906,0.000555038452148438,
00:00:06.332,0.000125885009765625,-0.00168800354003906,0.000514984130859375,
00:00:06.336,0.00011444091796875,-0.00168800354003906,0.000566482543945313,
00:00:06.34,0.000108718872070313,-0.00168800354003906,0.000589370727539063,
00:00:06.344,0.000154495239257813,-0.00169944763183594,0.000537872314453125,
00:00:06.348,0.000154495239257813,-0.0016937255859375,0.000543594360351563,
00:00:06.352,0.0001373291015625,-0.00167655944824219,0.000514984130859375,
