0.0,1.616486106294724E-4
0.004,1.617688133440987E-4
0.008,1.6114375922804188E-4
0.012,1.6075911054123763E-4
0.016,1.634997324347177E-4
0.02,1.6374013786397035E-4
0.024,1.5950900230912395E-4
0.028,1.5448452883774387E-4
0.032,1.5693666421612073E-4
0.036000000000000004,1.6361993514934402E-4
0.04,1.694377465372578E-4
0.044,1.761931390992569E-4
0.048,1.7895780153566218E-4
0.052000000000000005,1.7907800425028848E-4
0.056,1.8056851791165484E-4
0.06,1.796068961946443E-4
0.064,1.771066797304169E-4
0.068,1.722264495165884E-4
0.07200000000000001,1.6419690817955033E-4
0.076,1.560231235849607E-4
0.08,1.4986874459609325E-4
0.084,1.4734448758894057E-4
0.088,1.494360148234385E-4
0.092,1.555182721835302E-4
0.096,1.6256215126063243E-4
0.1,1.6914926002215464E-4
0.10400000000000001,1.725630171175421E-4
0.108,1.7311594960482313E-4
0.112,1.7174563865808313E-4
0.116,1.6907713839337885E-4
0.12,1.6631247595697354E-4
0.124,1.7253897657461682E-4
0.128,1.8790088350386023E-4
0.132,1.9210797851578138E-4
0.136,1.9059342431148978E-4
0.14,1.8850189707699186E-4
0.14400000000000002,1.9080978919781716E-4
0.148,1.9501688420973828E-4
0.152,1.9713245198716147E-4
0.156,1.9874316836315415E-4
0.16,2.0059429016839944E-4
0.164,2.0052216853962365E-4
0.168,1.9674780330035724E-4
0.17200000000000001,1.9383889760640036E-4
0.176,1.937427354346993E-4
0.18,1.9480051932341093E-4
0.184,1.920839379728561E-4
0.188,1.854487481254834E-4
0.192,1.8181862614376857E-4
0.196,1.8239559917397489E-4
0.2,1.8561703192596023E-4
0.20400000000000001,1.8869422142039395E-4
0.20800000000000002,1.8597764006983918E-4
0.212,1.8172246397206752E-4
0.216,1.8528046432500652E-4
0.22,1.920358568870056E-4
0.224,1.9314172186156773E-4
0.228,1.8903078902134763E-4
0.232,1.8934331607937607E-4
0.23600000000000002,1.9138676222802347E-4
0.24,1.9290131643231507E-4
0.244,1.9362253272007298E-4
0.248,1.9210797851578138E-4
0.252,1.895115998798529E-4
0.256,1.876604780746076E-4
0.26,1.8722774830195286E-4
0.264,1.862180454990918E-4
0.268,1.8352550469146226E-4
0.272,1.8268408568907805E-4
0.276,1.845111669513981E-4
0.28,1.802079097677759E-4
0.28400000000000003,1.7155331431468101E-4
0.28800000000000003,1.7140907105712942E-4
0.292,1.7628930127095796E-4
0.296,1.8453520749432334E-4
0.3,1.8929523499352553E-4
0.304,1.8862209979161816E-4
0.308,1.8828553219066445E-4
0.312,1.895115998798529E-4
0.316,1.943437490078309E-4
0.32,1.9674780330035724E-4
0.324,1.9792578990369513E-4
0.328,1.9843064130512569E-4
0.332,1.97637303388592E-4
0.336,1.9672376275743197E-4
0.34,1.9694012764375935E-4
0.34400000000000003,1.9595446538382355E-4
0.34800000000000003,1.9419950575027932E-4
0.352,1.9311768131864246E-4
0.356,1.934782894625214E-4
0.36,1.9696416818668462E-4
0.364,1.9919993867873416E-4
0.368,1.9607466809844987E-4
0.372,1.9186757308652875E-4
0.376,1.9196373525822978E-4
0.38,1.9537749235361724E-4
0.384,1.986470061914531E-4
0.388,2.0460906083691842E-4
0.392,2.1213375077252595E-4
0.396,2.1718226478683133E-4
0.4,2.1554750786791338E-4
0.404,2.1162889937109542E-4
0.40800000000000003,2.1266264271688174E-4
0.41200000000000003,2.1614852144104496E-4
0.41600000000000004,2.1641296741322285E-4
0.42,2.1545134569621232E-4
0.424,2.14874372666006E-4
0.428,2.1501861592355758E-4
0.432,2.14874372666006E-4
0.436,2.118452642574228E-4
0.44,2.1232607511592806E-4
0.444,2.1554750786791338E-4
0.448,2.1273476434565753E-4
0.452,2.0857575041958697E-4
0.456,2.0508987169542373E-4
0.46,2.062197772129111E-4
0.464,2.054264392963774E-4
0.468,2.062197772129111E-4
0.47200000000000003,2.1239819674470384E-4
0.47600000000000003,2.1501861592355758E-4
0.48,2.1458588615090284E-4
0.484,2.1290304814613437E-4
0.488,2.103066695102059E-4
0.492,2.056908852685553E-4
0.496,2.009548983122784E-4
0.5,1.967718438432825E-4
0.504,1.9331000566204457E-4
0.508,1.9302151914694137E-4
0.512,1.9422354629320456E-4
0.516,1.9270899208891296E-4
0.52,1.88790383592095E-4
0.524,1.841024777216686E-4
0.528,1.8131377474233805E-4
0.532,1.8177054505791803E-4
0.536,1.841024777216686E-4
0.54,1.88790383592095E-4
0.544,1.934782894625214E-4
0.548,1.9535345181069197E-4
0.552,1.9270899208891296E-4
0.556,1.8869422142039395E-4
0.56,1.885980592486929E-4
0.5640000000000001,1.9249262720258558E-4
0.5680000000000001,1.985268034768268E-4
0.5720000000000001,2.0508987169542373E-4
0.5760000000000001,2.0874403422006381E-4
0.58,2.0898443964931644E-4
0.584,2.0751796653087533E-4
0.588,2.0521007441005003E-4
0.592,2.0605149341243427E-4
0.596,2.0674866915726688E-4
0.6,2.0432057432181528E-4
0.604,1.988393305348552E-4
0.608,1.9564193832579513E-4
0.612,1.935504110912972E-4
0.616,1.9367061380592352E-4
0.62,1.9532941126776672E-4
0.624,1.963150735277025E-4
0.628,1.979498304466204E-4
0.632,1.9725265470178777E-4
0.636,1.9516112746728988E-4
0.64,1.987191278202289E-4
0.644,2.018203578575879E-4
0.648,2.00738533425951E-4
0.652,2.0287814174629946E-4
0.656,2.0646018264216373E-4
0.66,2.080228179323059E-4
0.664,2.0773433141720274E-4
0.668,2.0852766933373643E-4
0.672,2.110519263408891E-4
0.676,2.1326365629001332E-4
0.68,2.1213375077252595E-4
0.684,2.0970565593707432E-4
0.6880000000000001,2.0905656127809223E-4
0.6920000000000001,2.0624381775583635E-4
0.6960000000000001,2.114365750276933E-4
0.7000000000000001,2.192257109354787E-4
0.704,2.2249522477331456E-4
0.708,2.236491708337272E-4
0.712,2.2499544123754197E-4
0.716,2.2376937354835354E-4
0.72,2.2153360305630403E-4
0.724,2.192257109354787E-4
0.728,2.165091295849239E-4
0.732,2.1477821049430495E-4
0.736,2.163648863273723E-4
0.74,2.1934591365010503E-4
0.744,2.1848045410479555E-4
0.748,2.1554750786791338E-4
0.752,2.1263860217395647E-4
0.756,2.0994606136632698E-4
0.76,2.0475330409447005E-4
0.764,2.0201268220098998E-4
0.768,1.9799791153247095E-4
0.772,1.9528133018191618E-4
0.776,1.9607466809844987E-4
0.78,1.9544961398239302E-4
0.784,1.9448799226538246E-4
0.788,1.9318980294741824E-4
0.792,1.9463223552293408E-4
0.796,1.9859892510560258E-4
0.8,2.0155591188541E-4
0.804,2.0203672274391525E-4
0.808,2.0275793903167316E-4
0.812,2.0417633106426368E-4
0.8160000000000001,2.0405612834963738E-4
0.8200000000000001,2.0155591188541E-4
0.8240000000000001,2.0004135768111837E-4
0.8280000000000001,1.993201413933605E-4
0.8320000000000001,1.9451203280830773E-4
0.836,1.9030493779638663E-4
0.84,1.9340616783374562E-4
0.844,2.00738533425951E-4
0.848,2.066044258997153E-4
0.852,2.0609957449828478E-4
0.856,2.062918988416869E-4
0.86,2.058110879831816E-4
0.864,2.0662846644264058E-4
0.868,2.0528219603882584E-4
0.872,2.0189247948636368E-4
0.876,2.0004135768111837E-4
0.88,2.0395996617793633E-4
0.884,2.078304935889038E-4
0.888,2.0650826372801425E-4
0.892,2.0280602011752368E-4
0.896,1.9922397922165943E-4
0.9,1.9758922230274145E-4
0.904,1.9696416818668462E-4
0.908,1.9489668149511198E-4
0.912,1.9667568167158146E-4
0.916,2.0347915531943104E-4
0.92,2.1021050733850487E-4
0.924,2.143454807216502E-4
0.928,2.1641296741322285E-4
0.932,2.166293322995502E-4
0.936,2.169418593575787E-4
0.9400000000000001,2.199469272232366E-4
0.9440000000000001,2.2146148142752824E-4
0.9480000000000001,2.2105279219779874E-4
0.9520000000000001,2.189612649633008E-4
0.9560000000000001,2.1790348107458924E-4
0.96,2.174707513019345E-4
0.964,2.143454807216502E-4
0.968,2.0929696670734485E-4
0.972,2.102585884243554E-4
0.976,2.146820483226039E-4
0.98,2.188410622486745E-4
0.984,2.1780731890288818E-4
0.988,2.1410507529239759E-4
0.992,2.1956227853643239E-4
0.996,2.2605322512625353E-4
1.0,2.2848131996170519E-4
1.004,2.2773606313102203E-4
1.008,2.2850536050463046E-4
1.012,2.2872172539095784E-4
1.016,2.2725525227251678E-4
1.02,2.252839277526451E-4
1.024,2.2408190060638195E-4
1.028,2.2150956251337875E-4
1.032,2.1588407546886706E-4
1.036,2.110519263408891E-4
1.04,2.1273476434565753E-4
1.044,2.1451376452212705E-4
1.048,2.15787913297166E-4
1.052,2.1775923781703764E-4
1.056,2.1465800777967862E-4
1.06,2.1273476434565753E-4
1.064,2.1713418370098082E-4
1.068,2.2249522477331456E-4
1.072,2.2660615761353466E-4
1.076,2.278322253027231E-4
1.08,2.273033333583673E-4
1.084,2.2824091453245256E-4
1.088,2.2965930656504313E-4
1.092,2.3069304991082945E-4
1.096,2.317027527136905E-4
1.1,2.311738607693347E-4
1.104,2.2915445516361258E-4
1.108,2.262455494696557E-4
1.112,2.2525988720971987E-4
1.116,2.2797646856027466E-4
1.12,2.307892120825305E-4
1.124,2.3497226655152633E-4
1.1280000000000001,2.3718399650065063E-4
1.1320000000000001,2.3634257749826642E-4
1.1360000000000001,2.3634257749826642E-4
1.1400000000000001,2.3718399650065063E-4
1.1440000000000001,2.3627045586949063E-4
1.1480000000000001,2.3413084754914213E-4
1.1520000000000001,2.3509246926615266E-4
1.156,2.3735228030112747E-4
1.16,2.3593388826853692E-4
1.164,2.292746578782389E-4
1.168,2.2107683274072402E-4
1.172,2.1723034587268187E-4
1.176,2.2047581916759243E-4
1.18,2.2672636032816098E-4
1.184,2.327845771453274E-4
1.188,2.3619833424071482E-4
1.192,2.3651086129874326E-4
1.196,2.3634257749826642E-4
1.2,2.3631853695534115E-4
1.204,2.3372215831941266E-4
1.208,2.3374619886233793E-4
1.212,2.359579288114622E-4
1.216,2.3987653730828015E-4
1.22,2.4086219956821593E-4
1.224,2.392995642780738E-4
1.228,2.3465973949349792E-4
1.232,2.319671986858684E-4
1.236,2.3088537425423156E-4
1.24,2.2706292792911467E-4
1.244,2.2958718493626735E-4
1.248,2.405737130531128E-4
1.252,2.450692945801371E-4
1.256,2.4343453766121915E-4
1.26,2.4167957802767492E-4
1.264,2.4259311865883491E-4
1.268,2.4093432119699171E-4
1.272,2.377850100737822E-4
1.276,2.3511650980907793E-4
1.28,2.330490231175053E-4
1.284,2.3057284719620312E-4
1.288,2.2812071181782626E-4
1.292,2.2593302241162723E-4
1.296,2.2468291417951353E-4
1.3,2.2316835997522196E-4
1.304,2.2162976522800508E-4
1.308,2.1809580541799135E-4
1.312,2.1287900760320912E-4
1.316,2.1283092651735858E-4
1.32,2.1763903510241134E-4
1.324,2.198988461373861E-4
1.328,2.148022510372302E-4
1.332,2.0696503404359426E-4
1.336,2.0922484507856907E-4
1.34,2.1456184560797757E-4
1.344,2.208364273114714E-4
1.348,2.2864960376218203E-4
1.352,2.289380902772852E-4
1.356,2.298035498225947E-4
1.36,2.3155850945613893E-4
1.364,2.3218356357219578E-4
1.368,2.3098153642593262E-4
1.372,2.2790434693149887E-4
1.3760000000000001,2.2583686023992618E-4
1.3800000000000001,2.2889000919143468E-4
1.3840000000000001,2.3184699597124207E-4
1.3880000000000001,2.3300094203165475E-4
1.3920000000000001,2.3422700972084318E-4
1.3960000000000001,2.322316446580463E-4
1.4000000000000001,2.2977950927966946E-4
1.4040000000000001,2.2711100901496518E-4
1.408,2.2223077880113666E-4
1.412,2.2208653554358507E-4
1.416,2.2485119797999037E-4
1.42,2.2593302241162723E-4
1.424,2.2735141444421783E-4
1.428,2.298756714513705E-4
1.432,2.2896213082021047E-4
1.436,2.2754373878761992E-4
1.44,2.2408190060638195E-4
1.444,2.1725438641560712E-4
1.448,2.1066727765408486E-4
1.452,2.04657141922769E-4
1.456,1.946803166087846E-4
1.46,1.862901671278676E-4
1.464,1.8193882885839487E-4
1.468,1.8475157238065072E-4
1.472,1.90064532367134E-4
1.476,1.9847872239097625E-4
1.48,2.0624381775583635E-4
1.484,2.1042687222483223E-4
1.488,2.1061919656823434E-4
1.492,2.0792665576060485E-4
1.496,2.1054707493945856E-4
1.5,2.123020345730028E-4
1.504,2.1244627783055439E-4
1.508,2.1429739963579967E-4
1.512,2.1598023764056811E-4
1.516,2.151388186381839E-4
1.52,2.1273476434565753E-4
1.524,2.1049899385360802E-4
1.528,2.0816706118985748E-4
1.532,2.0636402047046268E-4
1.536,2.0429653377889E-4
1.54,2.018684389434384E-4
1.544,1.9948842519383733E-4
1.548,1.9751710067396566E-4
1.552,2.0117126319860575E-4
1.556,2.07397763816249E-4
1.56,2.110519263408891E-4
1.564,2.1220587240130176E-4
1.568,2.1263860217395647E-4
1.572,2.1153273719939436E-4
1.576,2.0814302064693223E-4
1.58,2.05113912238349E-4
1.584,2.027338984887479E-4
1.588,2.0184439840051314E-4
1.592,2.0215692545854158E-4
1.596,2.0184439840051314E-4
1.6,2.0218096600146683E-4
1.604,2.0004135768111837E-4
1.608,1.9898357379240678E-4
1.612,2.049696689807974E-4
1.616,2.1040283168190696E-4
1.62,2.1208566968667543E-4
1.624,2.116529399140207E-4
1.6280000000000001,2.086238315054375E-4
1.6320000000000001,2.020848038297658E-4
1.6360000000000001,1.9655547895695513E-4
1.6400000000000001,1.9379081652054982E-4
1.6440000000000001,2.0004135768111837E-4
1.6480000000000001,2.080949395610817E-4
1.6520000000000001,2.1167698045694596E-4
1.6560000000000001,2.1376850769144385E-4
1.6600000000000001,2.1206162914375016E-4
1.6640000000000001,2.1088364254041227E-4
1.668,2.1150869665646912E-4
1.672,2.1117212905551544E-4
1.676,2.1049899385360802E-4
1.68,2.0984989919462592E-4
1.684,2.068688718718932E-4
1.688,2.0333491206187947E-4
1.692,2.004260063679226E-4
1.696,1.9696416818668462E-4
1.7,1.987191278202289E-4
1.704,2.033108715189542E-4
1.708,2.0453693920814264E-4
1.712,2.0143570917078365E-4
1.716,2.0040196582499733E-4
1.72,2.0198864165806474E-4
1.724,2.0160399297126051E-4
1.728,1.971564925300867E-4
1.732,1.9383889760640036E-4
1.736,1.942716273790551E-4
1.74,1.9532941126776672E-4
1.744,1.93165762404493E-4
1.748,1.9090595136951822E-4
1.752,1.8850189707699186E-4
1.756,1.8554491029718444E-4
1.76,1.841024777216686E-4
1.764,1.8842977544821602E-4
1.768,1.961948708130762E-4
1.772,1.9862296564852785E-4
1.776,1.9648335732817934E-4
1.78,1.923003028591835E-4
1.784,1.881893700189634E-4
1.788,1.8922311336474974E-4
1.792,1.937427354346993E-4
1.796,1.949447625809625E-4
1.8,1.9275707317476347E-4
1.804,1.9174737037190242E-4
1.808,1.9564193832579513E-4
1.812,1.9999327659526786E-4
1.816,1.9900761433533205E-4
1.82,1.977575061032183E-4
1.824,1.9770942501736778E-4
1.828,1.9472839769463514E-4
1.832,1.8657865364297076E-4
1.836,1.7893376099273691E-4
1.84,1.7777981493232427E-4
1.844,1.8162630180036646E-4
1.848,1.8172246397206752E-4
1.852,1.7592869312707898E-4
1.856,1.7059169259767045E-4
1.86,1.7417373349353472E-4
1.864,1.7859719339178323E-4
1.868,1.800877070531496E-4
1.872,1.7883759882103586E-4
1.8760000000000001,1.7924628805076538E-4
1.8800000000000001,1.8196286940132015E-4
1.8840000000000001,1.8458328858017388E-4
1.8880000000000001,1.8710754558732656E-4
1.8920000000000001,1.88790383592095E-4
1.8960000000000001,1.8830957273358972E-4
1.9000000000000001,1.8578531572643707E-4
1.9040000000000001,1.8446308586554755E-4
1.9080000000000001,1.8412651826459387E-4
1.9120000000000001,1.8487177509527702E-4
1.9160000000000001,1.8566511301181074E-4
1.92,1.862901671278676E-4
1.924,1.8881442413502028E-4
1.928,1.8953564042277816E-4
1.932,1.8624208604201708E-4
1.936,1.8237155863104961E-4
1.94,1.783567879625306E-4
1.944,1.7770769330354848E-4
1.948,1.8446308586554755E-4
1.952,1.9001645128128347E-4
1.956,1.9304555968986664E-4
1.96,1.9333404620496984E-4
1.964,1.8994432965250765E-4
1.968,1.867469374434476E-4
1.972,1.871315861302518E-4
1.976,1.8705946450147602E-4
1.98,1.8554491029718444E-4
1.984,1.8304469383295698E-4
1.988,1.7977517999512115E-4
1.992,1.7696243647286533E-4
1.996,1.7448626055156314E-4
2.0,1.706878547693715E-4
2.004,1.6799531396174201E-4
2.008,1.6715389495935778E-4
2.012,1.6710581387350726E-4
2.016,1.6619227324234722E-4
2.02,1.6590378672724407E-4
2.024,1.6599994889894513E-4
2.028,1.678029896183399E-4
2.032,1.7251493603169155E-4
2.036,1.7765961221769797E-4
2.04,1.8085700442675804E-4
2.044,1.81217612570637E-4
2.048,1.7888567990688637E-4
2.052,1.7612101747048107E-4
2.056,1.7775577438939902E-4
2.06,1.79486693480018E-4
2.064,1.785491123059327E-4
2.068,1.7410161186475894E-4
2.072,1.6789915179004096E-4
2.076,1.6782703016126515E-4
2.08,1.7347655774870209E-4
2.084,1.7220240897366314E-4
2.088,1.7066381422644626E-4
2.092,1.729476658043463E-4
2.096,1.752555579251716E-4
2.1,1.7503919303884423E-4
2.104,1.725630171175421E-4
2.108,1.721543278878126E-4
2.112,1.7833274741960533E-4
2.116,1.8345338306268648E-4
2.12,1.856410724688855E-4
2.124,1.8631420767079287E-4
2.128,1.8537662649670758E-4
2.132,1.8028003139655167E-4
2.136,1.7422181457938524E-4
2.14,1.681876383051441E-4
2.144,1.6200921877335136E-4
2.148,1.5443644775189333E-4
2.152,1.499649067677943E-4
2.156,1.499649067677943E-4
2.16,1.5068612305555218E-4
2.164,1.5111885282820692E-4
2.168,1.578261643043555E-4
2.172,1.6823571939099464E-4
2.176,1.7734708515966953E-4
2.18,1.8491985618112756E-4
2.184,1.870113834156255E-4
2.188,1.8292449111833068E-4
2.192,1.7751536896014637E-4
2.196,1.780923419903527E-4
2.2,1.778278960181748E-4
2.204,1.7701051755871584E-4
2.208,1.7996750433852326E-4
2.212,1.854487481254834E-4
2.216,1.8814128893311288E-4
2.22,1.8854997816284238E-4
2.224,1.883816943623655E-4
2.228,1.872758293878034E-4
2.232,1.8552086975425917E-4
2.236,1.841745993504444E-4
2.24,1.8542470758255812E-4
2.244,1.8386207229241597E-4
2.248,1.81217612570637E-4
2.2520000000000002,1.7895780153566218E-4
2.2560000000000002,1.7859719339178323E-4
2.2600000000000002,1.761931390992569E-4
2.2640000000000002,1.7160139540053156E-4
2.2680000000000002,1.725630171175421E-4
2.2720000000000002,1.7689031484408954E-4
2.2760000000000002,1.7703455810164111E-4
2.2800000000000002,1.7311594960482313E-4
2.2840000000000003,1.7357271992040314E-4
2.2880000000000003,1.801357881390001E-4
2.2920000000000003,1.82587923517377E-4
2.2960000000000003,1.827802478607791E-4
2.3000000000000003,1.828523694895549E-4
2.3040000000000003,1.8049639628287906E-4
2.308,1.8172246397206752E-4
2.312,1.827802478607791E-4
2.316,1.802079097677759E-4
2.32,1.7804426090450216E-4
2.324,1.7770769330354848E-4
2.328,1.7931840967954117E-4
2.332,1.763133418138832E-4
2.336,1.7369292263502947E-4
2.34,1.722985711453642E-4
2.344,1.708320980269231E-4
2.348,1.7107250345617573E-4
2.352,1.7277938200386945E-4
2.356,1.734044361199263E-4
2.36,1.7342847666285157E-4
2.364,1.714331116000547E-4
2.368,1.7032724662549258E-4
2.372,1.6926946273678096E-4
2.376,1.6825975993391989E-4
2.38,1.71096543999101E-4
2.384,1.7006280065331468E-4
2.388,1.696300708806599E-4
2.392,1.720822062590368E-4
2.396,1.7282746308972E-4
2.4,1.7092826019862416E-4
2.404,1.7306786851897262E-4
2.408,1.7703455810164111E-4
2.412,1.802079097677759E-4
2.416,1.8273216677492857E-4
2.42,1.856410724688855E-4
2.424,1.8496793726697808E-4
2.428,1.8112145039893594E-4
2.432,1.7857315284885796E-4
2.436,1.7965497728049485E-4
2.44,1.8136185582818856E-4
2.444,1.8109740985601067E-4
2.448,1.8042427465410327E-4
2.452,1.793424502224664E-4
2.456,1.765777877860611E-4
2.46,1.7489494978129266E-4
2.464,1.7845295013423166E-4
2.468,1.8191478831546963E-4
2.472,1.8530450486793176E-4
2.476,1.87973005132636E-4
2.48,1.8794896458971077E-4
2.484,1.8607380224154024E-4
2.488,1.8494389672405284E-4
2.492,1.8494389672405284E-4
2.496,1.841024777216686E-4
2.5,1.8405439663581809E-4
2.504,1.843669236938465E-4
2.508,1.842948020650707E-4
2.512,1.8080892334090752E-4
2.516,1.7527959846809686E-4
2.52,1.7059169259767045E-4
2.524,1.6823571939099464E-4
2.528,1.6722601658813356E-4
2.532,1.6693753007303042E-4
2.536,1.6931754382263148E-4
2.54,1.7085613856984835E-4
2.544,1.7210624680196208E-4
2.548,1.7152927377175574E-4
2.552,1.7032724662549258E-4
2.556,1.7323615231944946E-4
2.56,1.7576040932660214E-4
2.564,1.7840486904838112E-4
2.568,1.8109740985601067E-4
2.572,1.8328509926220964E-4
2.576,1.8234751808812437E-4
2.58,1.7943861239416747E-4
2.584,1.7989538270974748E-4
2.588,1.8217923428764753E-4
2.592,1.8169842342914225E-4
2.596,1.7912608533613903E-4
2.6,1.7713072027334217E-4
2.604,1.788135582781106E-4
2.608,1.8157822071451595E-4
2.612,1.798232610809717E-4
2.616,1.7689031484408954E-4
2.62,1.7660182832898637E-4
2.624,1.7972709890927063E-4
2.628,1.8196286940132015E-4
2.632,1.813378152852633E-4
2.636,1.8085700442675804E-4
2.64,1.7989538270974748E-4
2.644,1.80400234111178E-4
2.648,1.7838082850545585E-4
2.652,1.7318807123359892E-4
2.656,1.695579492518841E-4
2.66,1.6794723287589147E-4
2.664,1.6602398944187037E-4
2.668,1.6410074600784928E-4
2.672,1.6530277315411244E-4
2.676,1.6756258418908727E-4
2.68,1.6722601658813356E-4
2.684,1.6482196229560718E-4
2.688,1.6559125966921563E-4
2.692,1.6458155686635456E-4
2.696,1.642209487224756E-4
2.7,1.6688944898717985E-4
2.704,1.6830784101977043E-4
2.708,1.6862036807779884E-4
2.712,1.6782703016126515E-4
2.716,1.6729813821690938E-4
2.72,1.6813955721929359E-4
2.724,1.6770682744663885E-4
2.728,1.6662500301500196E-4
2.732,1.6862036807779884E-4
2.736,1.709523007415494E-4
2.74,1.703032060825673E-4
2.744,1.6705773278765672E-4
2.748,1.6414882709369982E-4
2.7520000000000002,1.6686540844425458E-4
2.7560000000000002,1.7080805748399784E-4
2.7600000000000002,1.726832198321684E-4
2.7640000000000002,1.748709092383674E-4
2.7680000000000002,1.790058826215127E-4
2.7720000000000002,1.8143397745696435E-4
2.7760000000000002,1.8169842342914225E-4
2.7800000000000002,1.8052043682580433E-4
2.7840000000000003,1.795588151087938E-4
2.7880000000000003,1.7927032859369062E-4
2.7920000000000003,1.7972709890927063E-4
2.7960000000000003,1.8061659899750538E-4
2.8000000000000003,1.808810449696833E-4
2.8040000000000003,1.8056851791165484E-4
2.8080000000000003,1.80400234111178E-4
2.8120000000000003,1.8273216677492857E-4
2.816,1.820109504871707E-4
2.82,1.7951073402294325E-4
2.824,1.8023195031070116E-4
2.828,1.7996750433852326E-4
2.832,1.7539980118272318E-4
2.836,1.71096543999101E-4
2.84,1.630429621191377E-4
2.844,1.5460473155237017E-4
2.848,1.5429220449434175E-4
2.852,1.5893202927891762E-4
2.856,1.6414882709369982E-4
2.86,1.7104846291325046E-4
2.864,1.773711257025948E-4
2.868,1.8253984243152646E-4
2.872,1.8381399120656543E-4
2.876,1.80400234111178E-4
2.88,1.757123282407516E-4
2.884,1.7616909855633163E-4
2.888,1.775634500459969E-4
2.892,1.7643354452850953E-4
2.896,1.7693839592994006E-4
2.9,1.8056851791165484E-4
2.904,1.8138589637111383E-4
2.908,1.8446308586554755E-4
2.912,1.9133868114217296E-4
2.916,1.9713245198716147E-4
2.92,1.9674780330035724E-4
2.924,1.946803166087846E-4
2.928,1.93165762404493E-4
2.932,1.915069649426498E-4
2.936,1.8960776205155397E-4
2.94,1.881172483901876E-4
2.944,1.8679501852929812E-4
2.948,1.8441500477969704E-4
2.952,1.8504005889575386E-4
2.956,1.8934331607937607E-4
2.96,1.913627216850982E-4
2.964,1.9042514051101293E-4
2.968,1.901847350817603E-4
2.972,1.929974786040161E-4
2.976,1.9297343806109086E-4
2.98,1.929974786040161E-4
2.984,1.9496880312388777E-4
2.988,1.9417546520735405E-4
2.992,1.9131464059924768E-4
2.996,1.9035301888223715E-4
3.0,1.8943947825107713E-4
3.004,1.8960776205155397E-4
3.008,1.8842977544821602E-4
3.012,1.870835050444013E-4
3.016,1.8453520749432334E-4
3.02,1.8208307211594647E-4
3.024,1.8104932877016015E-4
3.028,1.8037619356825273E-4
3.032,1.7996750433852326E-4
3.036,1.7941457185124222E-4
3.04,1.7811638253327795E-4
3.044,1.7701051755871584E-4
3.048,1.7845295013423166E-4
3.052,1.811454909418612E-4
3.056,1.8371782903486437E-4
3.06,1.8371782903486437E-4
3.064,1.8302065329003174E-4
3.068,1.8484773455235178E-4
3.072,1.8292449111833068E-4
3.076,1.7905396370736324E-4
3.08,1.8172246397206752E-4
3.084,1.8619400495616654E-4
3.088,1.8898270793549712E-4
3.092,1.9102615408414452E-4
3.096,1.913627216850982E-4
3.1,1.9193969471530454E-4
3.104,1.91891613629454E-4
3.108,1.9016069453883504E-4
3.112,1.884538159911413E-4
3.116,1.8717966721610235E-4
3.12,1.8614592387031603E-4
3.124,1.8585743735521286E-4
3.128,1.8494389672405284E-4
3.132,1.836937884919391E-4
3.136,1.8559299138303496E-4
3.14,1.881893700189634E-4
3.144,1.879249240467855E-4
3.148,1.8749219427413076E-4
3.152,1.862180454990918E-4
3.156,1.862901671278676E-4
3.16,1.8578531572643707E-4
3.164,1.8391015337826651E-4
3.168,1.8225135591642331E-4
3.172,1.8189074777254436E-4
3.176,1.8292449111833068E-4
3.18,1.8237155863104961E-4
3.184,1.8112145039893594E-4
3.188,1.7811638253327795E-4
3.192,1.7527959846809686E-4
3.196,1.720822062590368E-4
3.2,1.7193796300148524E-4
3.204,1.7455838218033892E-4
3.208,1.7604889584170528E-4
3.212,1.7753940950307164E-4
3.216,1.7996750433852326E-4
3.22,1.8097720714138437E-4
3.224,1.8407843717874336E-4
3.228,1.8722774830195286E-4
3.232,1.886701808774687E-4
3.236,1.890548295642729E-4
3.24,1.8830957273358972E-4
3.244,1.867469374434476E-4
3.248,1.854968292113339E-4
3.2520000000000002,1.8181862614376857E-4
3.2560000000000002,1.7866931502055902E-4
3.2600000000000002,1.8015982868192537E-4
3.2640000000000002,1.829004505754054E-4
3.2680000000000002,1.8504005889575386E-4
3.2720000000000002,1.873479510165792E-4
3.2760000000000002,1.8898270793549712E-4
3.2800000000000002,1.8583339681228759E-4
3.2840000000000003,1.8359762632023805E-4
3.2880000000000003,1.8119357202771172E-4
3.2920000000000003,1.7852507176300745E-4
3.2960000000000003,1.7876547719226007E-4
3.3000000000000003,1.8076084225505696E-4
3.3040000000000003,1.82131153201797E-4
3.3080000000000003,1.8165034234329173E-4
3.3120000000000003,1.820109504871707E-4
3.3160000000000003,1.8193882885839487E-4
3.3200000000000003,1.8193882885839487E-4
3.3240000000000003,1.8357358577731278E-4
3.3280000000000003,1.8467945075187494E-4
3.332,1.842948020650707E-4
3.336,1.8374186957778962E-4
3.34,1.8653057255712022E-4
3.344,1.876604780746076E-4
3.348,1.8922311336474974E-4
3.352,1.9114635679877084E-4
3.356,1.9167524874312664E-4
3.36,1.9083382974074243E-4
3.364,1.8967988368032975E-4
3.368,1.895115998798529E-4
3.372,1.890548295642729E-4
3.376,1.874681537312055E-4
3.38,1.843669236938465E-4
3.384,1.8116953148478645E-4
3.388,1.7852507176300745E-4
3.392,1.7650566615728532E-4
3.396,1.749189903242179E-4
3.4,1.7155331431468101E-4
3.404,1.7100038182739995E-4
3.408,1.7722688244504323E-4
3.412,1.8220327483057277E-4
3.416,1.82131153201797E-4
3.42,1.8412651826459387E-4
3.424,1.9059342431148978E-4
3.428,1.9350233000544668E-4
3.432,1.934782894625214E-4
3.436,1.928772758893898E-4
3.44,1.94536073351233E-4
3.444,1.943437490078309E-4
3.448,1.9311768131864246E-4
3.452,1.938148570634751E-4
3.456,1.949447625809625E-4
3.46,1.9403122194980248E-4
3.464,1.9105019462706979E-4
3.468,1.872758293878034E-4
3.472,1.878528024180097E-4
3.476,1.9061746485441505E-4
3.48,1.9138676222802347E-4
3.484,1.9441587063660667E-4
3.488,1.9655547895695513E-4
3.492,1.9739689795933936E-4
3.496,1.9987307388064153E-4
3.5,2.0807089901815642E-4
3.504,2.1391275094899547E-4
3.508,2.1417719692117337E-4
3.512,2.1331173737586386E-4
3.516,2.1379254823436912E-4
3.52,2.1369638606266806E-4
3.524,2.1179718317157226E-4
3.528,2.0780645304597855E-4
3.532,2.022050065443921E-4
3.536,1.9590638429797303E-4
3.54,1.8737199155950443E-4
3.544,1.7701051755871584E-4
3.548,1.6934158436555675E-4
3.552,1.683799626485462E-4
3.556,1.713609899712789E-4
3.56,1.7727496353089374E-4
3.564,1.8345338306268648E-4
3.568,1.912425189704719E-4
3.572,1.9720457361593725E-4
3.576,1.9948842519383733E-4
3.58,2.0335895260480474E-4
3.584,2.0379168237745948E-4
3.588,2.0280602011752368E-4
3.592,2.015318713424847E-4
3.596,2.005462090825489E-4
3.6,1.9948842519383733E-4
3.604,2.000173171381931E-4
3.608,2.006904523401005E-4
3.612,2.0232520925901842E-4
3.616,2.0102701994105418E-4
3.62,2.0004135768111837E-4
3.624,2.0119530374153102E-4
3.628,2.0052216853962365E-4
3.632,2.0023368202452048E-4
3.636,2.0184439840051314E-4
3.64,2.0268581740289738E-4
3.644,2.0215692545854158E-4
3.648,2.0119530374153102E-4
3.652,2.0249349305949526E-4
3.656,2.037195607486837E-4
3.66,2.0275793903167316E-4
3.664,2.0131550645615732E-4
3.668,2.006904523401005E-4
3.672,2.0184439840051314E-4
3.676,2.0684483132896793E-4
3.68,2.0968161539414908E-4
3.684,2.114365750276933E-4
3.688,2.132155752041628E-4
3.692,2.1319153466123754E-4
3.696,2.0924888562149434E-4
3.7,2.068688718718932E-4
3.704,2.123741562017786E-4
3.708,2.1845641356187028E-4
3.712,2.2064410296806928E-4
3.716,2.214134003416777E-4
3.72,2.2211057608651034E-4
3.724,2.2263946803086613E-4
3.728,2.209566300260977E-4
3.732,2.2025945428126508E-4
3.736,2.2126915708412613E-4
3.74,2.208364273114714E-4
3.744,2.180477243321408E-4
3.748,2.1549942678206283E-4
3.7520000000000002,2.1566771058253968E-4
3.7560000000000002,2.1828812976139344E-4
3.7600000000000002,2.1790348107458924E-4
3.7640000000000002,2.149464942947818E-4
3.7680000000000002,2.132155752041628E-4
3.7720000000000002,2.1198950751497437E-4
3.7760000000000002,2.089363585634659E-4
3.7800000000000002,2.0951333159367224E-4
3.7840000000000003,2.1126829122721647E-4
3.7880000000000003,2.124943589164049E-4
3.7920000000000003,2.1232607511592806E-4
3.7960000000000003,2.1194142642912386E-4
3.8000000000000003,2.1081152091163648E-4
3.8040000000000003,2.1153273719939436E-4
3.8080000000000003,2.1287900760320912E-4
3.8120000000000003,2.1215779131545122E-4
3.8160000000000003,2.1129233177014174E-4
3.8200000000000003,2.1412911583532283E-4
3.8240000000000003,2.1482629158015547E-4
3.8280000000000003,2.1259052108810596E-4
3.8320000000000003,2.120375886008249E-4
3.8360000000000003,2.113884939418428E-4
3.84,2.1066727765408486E-4
3.844,2.093450477931954E-4
3.848,2.0636402047046268E-4
3.852,2.04657141922769E-4
3.856,2.0816706118985748E-4
3.86,2.1186930480034805E-4
3.864,2.113884939418428E-4
3.868,2.093450477931954E-4
3.872,2.071333178440711E-4
3.876,2.0249349305949526E-4
3.88,2.0018560093866994E-4
3.884,2.0816706118985748E-4
3.888,2.1335981846171438E-4
3.892,2.1134041285599228E-4
3.896,2.1247031837347963E-4
3.9,2.1814388650384187E-4
3.904,2.216778463138556E-4
3.908,2.2249522477331456E-4
3.912,2.216057246850798E-4
3.916,2.1944207582180609E-4
3.92,2.1742267021608396E-4
3.924,2.1598023764056811E-4
3.928,2.143454807216502E-4
3.932,2.1292708868905964E-4
3.936,2.1194142642912386E-4
3.94,2.1037879113898172E-4
3.944,2.1028262896728066E-4
3.948,2.1088364254041227E-4
3.952,2.1162889937109542E-4
3.956,2.12229912944227E-4
3.96,2.1408103474947231E-4
3.964,2.1619660252689547E-4
3.968,2.1583599438301652E-4
3.972,2.1338385900463965E-4
3.976,2.0905656127809223E-4
3.98,2.080228179323059E-4
3.984,2.133357779187891E-4
3.988,2.1554750786791338E-4
3.992,2.1504265646648285E-4
3.996,2.113884939418428E-4
4.0,2.0876807476298906E-4
4.0040000000000004,2.079747368464554E-4
4.008,2.0583512852610688E-4
4.0120000000000005,2.0359935803405737E-4
4.016,2.0232520925901842E-4
4.0200000000000005,2.0773433141720274E-4
4.024,2.1083556145456173E-4
4.0280000000000005,2.0521007441005003E-4
4.032,1.9994519550941731E-4
4.0360000000000005,2.0136358754200786E-4
4.04,2.0388784454916054E-4
4.0440000000000005,2.052341149529753E-4
4.048,2.0386380400623527E-4
4.0520000000000005,2.020848038297658E-4
4.056,2.00281763110371E-4
4.0600000000000005,1.9859892510560258E-4
4.064,1.9583426266919725E-4
4.0680000000000005,1.9302151914694137E-4
4.072,1.9145888385679926E-4
4.0760000000000005,1.902568567105361E-4
4.08,1.8737199155950443E-4
4.0840000000000005,1.859535995269139E-4
4.088,1.875402753599813E-4
4.0920000000000005,1.8787684296093498E-4
4.096,1.8638632929956865E-4
4.1,1.8434288315092125E-4
4.104,1.8374186957778962E-4
4.108,1.8780472133215917E-4
4.112,1.9285323534646453E-4
4.116,1.9643527624232883E-4
4.12,1.985268034768268E-4
4.124,1.9953650627968785E-4
4.128,2.0268581740289738E-4
4.132,2.0564280418270477E-4
4.136,2.0958545322244802E-4
4.14,2.1189334534327332E-4
4.144,2.1162889937109542E-4
4.148,2.1037879113898172E-4
4.152,2.1028262896728066E-4
4.156,2.0886423693469011E-4
4.16,2.0463310137984372E-4
4.164,2.0352723640528159E-4
4.168,2.0585916906903215E-4
4.172,2.0804685847523118E-4
4.176,2.0597937178365845E-4
4.18,2.0369552020575843E-4
4.184,2.0424845269303947E-4
4.188,2.062918988416869E-4
4.192,2.0725352055869743E-4
4.196,2.0730160164454794E-4
4.2,2.066765475284911E-4
4.204,2.0701311512944477E-4
4.208,2.0790261521767958E-4
4.212,2.0653230427093952E-4
4.216,2.0501775006664794E-4
4.22,2.0270985794582262E-4
4.224,2.004740874537731E-4
4.228,1.9463223552293408E-4
4.232,1.8475157238065072E-4
4.236,1.739814091501326E-4
4.24,1.6559125966921563E-4
4.244,1.679231923329662E-4
4.248,1.7426989566523578E-4
4.252,1.8109740985601067E-4
4.256,1.870113834156255E-4
4.26,1.921560596016319E-4
4.264,1.9648335732817934E-4
4.268,1.9831043859049936E-4
4.272,1.9835851967634987E-4
4.276,1.9727669524471304E-4
4.28,1.9480051932341093E-4
4.284,1.963871951564783E-4
4.288,1.9951246573676257E-4
4.292,2.0206076328684053E-4
4.296,2.0244541197364472E-4
4.3,2.0270985794582262E-4
4.304,2.0083469559765206E-4
4.308,2.002096414815952E-4
4.312,2.0088277668350258E-4
4.316,2.0165207405711106E-4
4.32,2.0124338482738153E-4
4.324,2.0129146591323208E-4
4.328,1.9960862790846363E-4
4.332,1.975651817598162E-4
4.336,1.9650739787110461E-4
4.34,1.957861815833467E-4
4.344,1.9528133018191618E-4
4.348,1.9718053307301198E-4
4.352,2.0049812799669838E-4
4.356,2.004740874537731E-4
4.36,2.0011347930989416E-4
4.364,1.9948842519383733E-4
4.368,2.003538847391468E-4
4.372,2.0340703369065526E-4
4.376,2.0617169612706057E-4
4.38,2.04657141922769E-4
4.384,1.9867104673437837E-4
4.388,1.9761326284566672E-4
4.392,1.9951246573676257E-4
4.396,2.034551147765058E-4
4.4,2.0631593938461216E-4
4.404,2.0718139892992162E-4
4.408,2.0597937178365845E-4
4.412,2.0420037160718895E-4
4.416,2.0405612834963738E-4
4.42,2.0811898010400696E-4
4.424,2.1061919656823434E-4
4.428,2.0886423693469011E-4
4.432,2.0706119621529532E-4
4.436,2.0398400672086157E-4
4.44,1.9807003316124673E-4
4.444,1.9588234375504776E-4
4.448,1.9708437090131092E-4
4.452,1.977575061032183E-4
4.456,1.994403441079868E-4
4.46,1.9984903333771626E-4
4.464,1.973007357876383E-4
4.468,1.9395910032102666E-4
4.472,1.929974786040161E-4
4.476,1.9193969471530454E-4
4.48,1.8929523499352553E-4
4.484,1.8876634304916973E-4
4.488,1.9083382974074243E-4
4.492,1.924205055738098E-4
4.496,1.9386293814932563E-4
4.5,1.9554577615409408E-4
4.5040000000000004,1.9686800601498357E-4
4.508,1.949447625809625E-4
4.5120000000000005,1.9205989742993084E-4
4.516,1.9049726213978875E-4
4.5200000000000005,1.9232434340210873E-4
4.524,1.9403122194980248E-4
4.5280000000000005,1.948245598663362E-4
4.532,1.9761326284566672E-4
4.5360000000000005,1.9819023587587303E-4
4.54,1.9847872239097625E-4
4.5440000000000005,2.0011347930989416E-4
4.548,2.0052216853962365E-4
4.5520000000000005,2.0141166862785838E-4
4.556,2.0275793903167316E-4
4.5600000000000005,2.0251753360242054E-4
4.564,2.0004135768111837E-4
4.5680000000000005,1.9893549270655626E-4
4.572,1.9874316836315415E-4
4.5760000000000005,1.9643527624232883E-4
4.58,1.9499284366681304E-4
4.5840000000000005,1.9391101923517615E-4
4.588,1.9191565417237927E-4
4.5920000000000005,1.9302151914694137E-4
4.596,1.9393505977810142E-4
4.6000000000000005,1.926849515459877E-4
4.604,1.9318980294741824E-4
4.6080000000000005,1.941273841215035E-4
4.612,1.9492072203803723E-4
4.616,1.963871951564783E-4
4.62,1.975651817598162E-4
4.624,1.9999327659526786E-4
4.628,2.0283006066044895E-4
4.632,2.054264392963774E-4
4.636,2.06940993500669E-4
4.64,2.0624381775583635E-4
4.644,2.063399799275374E-4
4.648,2.0746988544502478E-4
4.652,2.0665250698556585E-4
4.656,2.0460906083691842E-4
4.66,2.0290218228922473E-4
4.664,2.0088277668350258E-4
4.668,1.9924801976458468E-4
4.672,1.9643527624232883E-4
4.676,1.91891613629454E-4
4.68,1.9174737037190242E-4
4.684,1.957861815833467E-4
4.688,1.968920465579088E-4
4.692,1.951370869243646E-4
4.696,1.9554577615409408E-4
4.7,1.961227491843004E-4
4.704,1.9807003316124673E-4
4.708,2.0165207405711106E-4
4.712,2.0155591188541E-4
4.716,2.0088277668350258E-4
4.72,2.013395469990826E-4
4.724,2.0316662826140263E-4
4.728,2.0309450663262685E-4
4.732,2.00281763110371E-4
4.736,1.9799791153247095E-4
4.74,1.9576214104042146E-4
4.744,1.9340616783374562E-4
4.748,1.9191565417237927E-4
4.752,1.9001645128128347E-4
4.756,1.8737199155950443E-4
4.76,1.8501601835282862E-4
4.764,1.8578531572643707E-4
4.768,1.901847350817603E-4
4.772,1.926849515459877E-4
4.776,1.9157908657142558E-4
4.78,1.878528024180097E-4
4.784,1.915069649426498E-4
4.788,1.9624295189892672E-4
4.792,1.9903165487825732E-4
4.796,1.9984903333771626E-4
4.8,2.0071449288302574E-4
4.804,2.049215878949469E-4
4.808,2.0811898010400696E-4
4.812,2.0708523675822059E-4
4.816,2.0619573666998584E-4
4.82,2.0593129069780794E-4
4.824,2.0427249323596474E-4
4.828,2.0314258771847736E-4
4.832,2.0268581740289738E-4
4.836,2.0424845269303947E-4
4.84,2.0340703369065526E-4
4.844,2.0093085776935312E-4
4.848,2.0064237125424995E-4
4.852,2.0261369577412156E-4
4.856,2.0480138518032056E-4
4.86,2.0722948001577216E-4
4.864,2.0792665576060485E-4
4.868,2.0624381775583635E-4
4.872,2.0528219603882584E-4
4.876,2.0638806101338795E-4
4.88,2.0677270970019215E-4
4.884,2.058110879831816E-4
4.888,2.0833534499033432E-4
4.892,2.1028262896728066E-4
4.896,2.1110000742673962E-4
4.9,2.1054707493945856E-4
4.904,2.1110000742673962E-4
4.908,2.0936908833612064E-4
4.912,2.0400804726378684E-4
4.916,1.979498304466204E-4
4.92,1.9157908657142558E-4
4.924,1.8484773455235178E-4
4.928,1.8616996441324127E-4
4.932,1.924205055738098E-4
4.936,1.987191278202289E-4
4.94,2.0653230427093952E-4
4.944,2.1153273719939436E-4
4.948,2.1412911583532283E-4
4.952,2.1590811601179233E-4
4.956,2.1518689972403442E-4
4.96,2.149464942947818E-4
4.964,2.1737458913023344E-4
4.968,2.1980268396568504E-4
4.972,2.192257109354787E-4
4.976,2.1850449464772082E-4
4.98,2.1821600813261765E-4
4.984,2.1898530550622608E-4
4.988,2.1840833247601977E-4
4.992,2.1583599438301652E-4
4.996,2.150666970094081E-4
5.0,2.138165887772944E-4
5.0040000000000004,2.1465800777967862E-4
5.008,2.1809580541799135E-4
5.0120000000000005,2.202354137383398E-4
5.016,2.2018733265248927E-4
5.0200000000000005,2.223990626016135E-4
5.024,2.2367321137665248E-4
5.0280000000000005,2.2174996794263138E-4
5.032,2.1920167039255346E-4
5.0360000000000005,2.175909540165608E-4
5.04,2.1833621084724398E-4
5.0440000000000005,2.183842919330945E-4
5.048,2.192257109354787E-4
5.0520000000000005,2.2086046785439666E-4
5.056,2.2324048160399774E-4
5.0600000000000005,2.2511564395216827E-4
5.064,2.2617342784087992E-4
5.0680000000000005,2.269667657574136E-4
5.072,2.2571665752529985E-4
5.0760000000000005,2.223990626016135E-4
5.08,2.2074026513977033E-4
5.0840000000000005,2.208364273114714E-4
5.088,2.1944207582180609E-4
5.0920000000000005,2.1797560270336503E-4
5.096,2.1824004867554292E-4
5.1000000000000005,2.165091295849239E-4
5.104,2.1220587240130176E-4
5.1080000000000005,2.1021050733850487E-4
5.112,2.107153587399354E-4
5.1160000000000005,2.080228179323059E-4
5.12,2.0763816924550163E-4
5.124,2.059553312407332E-4
5.128,2.0718139892992162E-4
5.132,2.1369638606266806E-4
5.136,2.1735054858730817E-4
5.14,2.202354137383398E-4
5.144,2.1977864342275977E-4
5.148,2.1641296741322285E-4
5.152,2.14417602350426E-4
5.156,2.1345598063341544E-4
5.16,2.1292708868905964E-4
5.164,2.1206162914375016E-4
5.168,2.1198950751497437E-4
5.172,2.1160485882817018E-4
5.176,2.1117212905551544E-4
5.18,2.068688718718932E-4
5.184,1.9984903333771626E-4
5.188,2.0143570917078365E-4
5.192,2.0821514227570802E-4
5.196,2.118452642574228E-4
5.2,2.0958545322244802E-4
5.204,2.0799877738938063E-4
5.208,2.104509127677575E-4
5.212,2.1179718317157226E-4
5.216,2.1458588615090284E-4
5.22,2.1953823799350714E-4
5.224,2.2184613011433244E-4
5.228,2.2119703545535034E-4
5.232,2.2131723816997664E-4
5.236,2.222067382582114E-4
5.24,2.2218269771528612E-4
5.244,2.211489543694998E-4
5.248,2.1742267021608396E-4
5.252,2.148022510372302E-4
5.256,2.149464942947818E-4
5.26,2.1047495331068275E-4
5.264,2.0352723640528159E-4
5.268,2.0395996617793633E-4
5.272,2.1129233177014174E-4
5.276,2.1787944053166397E-4
5.28,2.2016329210956402E-4
5.284,2.2191825174310822E-4
5.288,2.23264522146923E-4
5.292,2.2629363055550624E-4
5.296,2.2610130621210408E-4
5.3,2.2631767109843151E-4
5.304,2.2684656304278728E-4
5.308,2.262455494696557E-4
5.312,2.2586090078285145E-4
5.316,2.254281710101967E-4
5.32,2.2485119797999037E-4
5.324,2.238655357200546E-4
5.328,2.2208653554358507E-4
5.332,2.2158168414215454E-4
5.336,2.2122107599827559E-4
5.34,2.2071622459684506E-4
5.344,2.200430893949377E-4
5.348,2.1754287293071029E-4
5.352,2.14874372666006E-4
5.356,2.1934591365010503E-4
5.36,2.2571665752529985E-4
5.364,2.282889956183031E-4
5.368,2.2973142819381892E-4
5.372,2.2946698222164102E-4
5.376,2.2925061733531366E-4
5.38,2.311738607693347E-4
5.384,2.3321730691798213E-4
5.388,2.3530883415248002E-4
5.392,2.3571752338220957E-4
5.396,2.342029691779179E-4
5.4,2.3328942854675792E-4
5.404,2.325201311731495E-4
5.408,2.3295286094580423E-4
5.412,2.3297690148872948E-4
5.416,2.292746578782389E-4
5.42,2.2720717118666624E-4
5.424,2.3235184737267265E-4
5.428,2.3444337460717054E-4
5.432,2.330971042033558E-4
5.436,2.2862556321925678E-4
5.44,2.246588736365883E-4
5.444,2.2586090078285145E-4
5.448,2.2879384701973362E-4
5.452,2.3218356357219578E-4
5.456,2.3502034763737688E-4
5.46,2.3554923958173273E-4
5.464,2.352607530666295E-4
5.468,2.3514055035200318E-4
5.472,2.336259961477116E-4
5.476,2.3465973949349792E-4
5.48,2.3651086129874326E-4
5.484,2.36486820755818E-4
5.488,2.3824178038936222E-4
5.492,2.4026118599508435E-4
5.496,2.4191998345692755E-4
5.5,2.4232867268665702E-4
5.5040000000000004,2.4530970000938973E-4
5.508,2.510073086826772E-4
5.5120000000000005,2.5538268749507515E-4
5.516,2.578107823305268E-4
5.5200000000000005,2.5809926884562997E-4
5.524,2.5867624187583626E-4
5.5280000000000005,2.566087551842636E-4
5.532,2.5377197111908247E-4
5.5360000000000005,2.53002673745474E-4
5.54,2.519689303996877E-4
5.5440000000000005,2.502380113090687E-4
5.548,2.4872345710477716E-4
5.5520000000000005,2.4963699773593713E-4
5.556,2.5110347085437824E-4
5.5600000000000005,2.541085387200362E-4
5.564,2.5377197111908247E-4
5.5680000000000005,2.509592275968267E-4
5.572,2.4752142995851395E-4
5.5760000000000005,2.447567675221087E-4
5.58,2.4268928083053597E-4
5.5840000000000005,2.3797733441718432E-4
5.588,2.2985163090844524E-4
5.5920000000000005,2.1876894061989872E-4
5.596,2.1066727765408486E-4
5.6000000000000005,2.1182122371449753E-4
5.604,2.1679761610002705E-4
5.6080000000000005,2.2280775183134297E-4
5.612,2.2812071181782626E-4
5.6160000000000005,2.3189507705709261E-4
5.62,2.3574156392513484E-4
5.6240000000000006,2.3773692898793167E-4
5.628,2.367512667279959E-4
5.632,2.3340963126138422E-4
5.636,2.3165467162784E-4
5.64,2.3324134746090738E-4
5.644,2.3728015867235168E-4
5.648,2.4079007793944014E-4
5.652,2.454779838098666E-4
5.656,2.4396342960557492E-4
5.66,2.3953996970732647E-4
5.664,2.3857834799031593E-4
5.668,2.4054967251018752E-4
5.672,2.4139109151257172E-4
5.676,2.3968421296487804E-4
5.68,2.3855430744739066E-4
5.684,2.3639065858411693E-4
5.688,2.344674151500958E-4
5.692,2.327845771453274E-4
5.696,2.3189507705709261E-4
5.7,2.3136618511273682E-4
5.704,2.3021223905232417E-4
5.708,2.2795242801734942E-4
5.712,2.25548373724823E-4
5.716,2.294189011357905E-4
5.72,2.3324134746090738E-4
5.724,2.3340963126138422E-4
5.728,2.315825499990642E-4
5.732,2.2915445516361258E-4
5.736,2.286015226763315E-4
5.74,2.284091983329294E-4
5.744,2.2771202258809676E-4
5.748,2.2701484684326415E-4
5.752,2.2891404973435992E-4
5.756,2.3146234728443788E-4
5.76,2.3352983397601054E-4
5.764,2.3497226655152633E-4
5.768,2.3893895613419488E-4
5.772,2.417036185706002E-4
5.776,2.4230463214373177E-4
5.78,2.417036185706002E-4
5.784,2.4026118599508435E-4
5.788,2.3550115849588218E-4
5.792,2.292746578782389E-4
5.796,2.2824091453245256E-4
5.8,2.2812071181782626E-4
5.804,2.2660615761353466E-4
5.808,2.2475503580828932E-4
5.812,2.231202788893714E-4
5.816,2.2384149517712932E-4
5.82,2.210287516548735E-4
5.824,2.1872085953404818E-4
5.828,2.2283179237426824E-4
5.832,2.257647386111504E-4
5.836,2.2663019815645993E-4
5.84,2.261974683838052E-4
5.844,2.2598110349747775E-4
5.848,2.2852940104755573E-4
5.852,2.3021223905232417E-4
5.856,2.2977950927966946E-4
5.86,2.2795242801734942E-4
5.864,2.2636575218428203E-4
5.868,2.2468291417951353E-4
5.872,2.225913869450156E-4
5.876,2.222067382582114E-4
5.88,2.2300007617474509E-4
5.884,2.227356302025672E-4
5.888,2.2107683274072402E-4
5.892,2.2107683274072402E-4
5.896,2.239136168059051E-4
5.9,2.2463483309366302E-4
5.904,2.2626959001258097E-4
5.908,2.2857748213340624E-4
5.912,2.3021223905232417E-4
5.916,2.3314518528920635E-4
5.92,2.3586176663976114E-4
5.924,2.3528479360955477E-4
5.928,2.3477994220812422E-4
5.932,2.3432317189254424E-4
5.936,2.3465973949349792E-4
5.94,2.3348175289016003E-4
5.944,2.2973142819381892E-4
5.948,2.2766394150224625E-4
5.952,2.267744414140115E-4
5.956,2.2540413046727144E-4
5.96,2.2566857643944934E-4
5.964,2.2687060358571255E-4
5.968,2.2720717118666624E-4
5.972,2.260772656691788E-4
5.976,2.230481572605956E-4
5.98,2.2090854894024717E-4
5.984,2.2223077880113666E-4
5.988,2.252358466667946E-4
5.992,2.25548373724823E-4
5.996,2.2384149517712932E-4
6.0,2.2215865717236085E-4
6.0040000000000004,2.2331260323277353E-4
6.008,2.2437038712148512E-4
6.0120000000000005,2.2410594114930722E-4
6.016,2.239136168059051E-4
6.0200000000000005,2.2138935979875243E-4
6.024,2.1886510279159978E-4
6.0280000000000005,2.163168052415218E-4
6.032,2.1814388650384187E-4
6.0360000000000005,2.2184613011433244E-4
6.04,2.2489927906584091E-4
6.0440000000000005,2.2910637407776204E-4
6.048,2.3098153642593262E-4
6.0520000000000005,2.2725525227251678E-4
6.056,2.2660615761353466E-4
6.0600000000000005,2.2937082004993996E-4
6.064,2.3348175289016003E-4
6.0680000000000005,2.372561181294264E-4
6.072,2.3792925333133378E-4
6.0760000000000005,2.3855430744739066E-4
6.08,2.3792925333133378E-4
6.0840000000000005,2.3610217206901377E-4
6.088,2.3285669877410318E-4
6.0920000000000005,2.2876980647680835E-4
6.096,2.269667657574136E-4
6.1000000000000005,2.2629363055550624E-4
6.104,2.2348088703325037E-4
6.1080000000000005,2.194901569076566E-4
6.112,2.166293322995502E-4
6.1160000000000005,2.15787913297166E-4
6.12,2.157398322113155E-4
6.1240000000000006,2.1376850769144385E-4
6.128,2.080949395610817E-4
6.132000000000001,2.0340703369065526E-4
6.136,2.05113912238349E-4
6.140000000000001,2.1040283168190696E-4
6.144,2.1927379202132924E-4
6.148,2.2653403598475887E-4
6.152,2.313902256556621E-4
6.156,2.3098153642593262E-4
6.16,2.3028436068109998E-4
6.164,2.3127002294103576E-4
6.168,2.3444337460717054E-4
6.172,2.3502034763737688E-4
6.176,2.3377023940526317E-4
6.18,2.3333750963260843E-4
6.184,2.3242396900144844E-4
6.188,2.3047668502450207E-4
6.192,2.288178875626589E-4
6.196,2.2663019815645993E-4
6.2,2.2427422494978406E-4
6.204,2.2155764359922927E-4
6.208,2.172063053297566E-4
6.212,2.1470608886552917E-4
6.216,2.15787913297166E-4
6.22,2.1850449464772082E-4
6.224,2.235289681191009E-4
6.228,2.2499544123754197E-4
6.232,2.2564453589652407E-4
6.236,2.2910637407776204E-4
6.24,2.2965930656504313E-4
6.244,2.267744414140115E-4
6.248,2.2494736015169143E-4
6.252,2.262455494696557E-4
6.256,2.2480311689413986E-4
6.26,2.1703802152927976E-4
6.264,2.0756604761672584E-4
6.268,1.9980095225186574E-4
6.272,1.935504110912972E-4
6.276,1.994403441079868E-4
6.28,2.0977777756585013E-4
6.284,2.158600349259418E-4
6.288,2.2307219780352087E-4
6.292,2.3057284719620312E-4
6.296,2.350684287232274E-4
6.3,2.3607813152608852E-4
6.304,2.3365003669063687E-4
6.308,2.313181040268863E-4
6.312,2.3134214456981155E-4
6.316,2.3165467162784E-4
6.32,2.346837800364232E-4
6.324,2.3807349658888538E-4
6.328,2.3807349658888538E-4
6.332,2.3744844247282853E-4
6.336,2.3566944229635905E-4
6.34,2.344674151500958E-4
6.344,2.3509246926615266E-4
6.348,2.3610217206901377E-4
6.352,2.3713591541480009E-4
6.356,2.3814561821766116E-4
6.36,2.417516996564507E-4
6.364,2.4530970000938973E-4
6.368,2.4665597041320447E-4
6.372,2.4427595666360333E-4
6.376,2.4110260499746856E-4
6.38,2.412708887979454E-4
6.384,2.4172765911352543E-4
6.388,2.43602821461696E-4
6.392,2.455501054386424E-4
6.396,2.450692945801371E-4
6.4,2.447567675221087E-4
6.404,2.4588667303959607E-4
6.408,2.443721188353044E-4
6.412,2.3946784807855068E-4
6.416,2.362223747836401E-4
6.42,2.364146991270422E-4
6.424,2.3908319939174646E-4
6.428,2.4314605114611598E-4
6.432,2.44516362092856E-4
6.436,2.456462676103434E-4
6.44,2.4295372680271387E-4
6.444,2.366791450992201E-4
6.448,2.3016415796647366E-4
6.452,2.2747161715884413E-4
6.456,2.3249609063022422E-4
6.46,2.350684287232274E-4
6.464,2.3328942854675792E-4
6.468,2.3249609063022422E-4
6.472,2.3477994220812422E-4
6.476,2.3516459089492845E-4
6.48,2.3129406348396103E-4
6.484,2.2763990095932098E-4
6.488,2.2403381952053143E-4
6.492,2.207643056826956E-4
6.496,2.183121703043187E-4
6.5,2.213412787129019E-4
6.5040000000000004,2.2598110349747775E-4
6.508,2.2321644106107247E-4
6.5120000000000005,2.150666970094081E-4
6.516,2.0896039910639117E-4
6.5200000000000005,2.1066727765408486E-4
6.524,2.14874372666006E-4
6.5280000000000005,2.230481572605956E-4
6.532,2.2951506330749156E-4
6.5360000000000005,2.3042860393865155E-4
6.54,2.3107769859763365E-4
6.5440000000000005,2.3136618511273682E-4
6.548,2.3035648230987577E-4
6.5520000000000005,2.311257796834842E-4
6.556,2.3352983397601054E-4
6.5600000000000005,2.3350579343308527E-4
6.564,2.319671986858684E-4
6.5680000000000005,2.3088537425423156E-4
6.572,2.3088537425423156E-4
6.5760000000000005,2.2845727941877994E-4
6.58,2.2884192810558414E-4
6.5840000000000005,2.313181040268863E-4
6.588,2.3179891488539156E-4
6.5920000000000005,2.3129406348396103E-4
6.596,2.3280861768825264E-4
6.6000000000000005,2.3502034763737688E-4
6.604,2.3100557696885786E-4
6.6080000000000005,2.2316835997522196E-4
6.612,2.2533200883849565E-4
6.6160000000000005,2.3172679325661577E-4
6.62,2.3266437443070106E-4
6.6240000000000006,2.3713591541480009E-4
6.628,2.4422787557775284E-4
6.632000000000001,2.474733488726634E-4
6.636,2.51079430311453E-4
6.640000000000001,2.504303356524708E-4
6.644,2.460789973829982E-4
6.648000000000001,2.4297776734563914E-4
6.652,2.4439615937822966E-4
6.656000000000001,2.468482947566066E-4
6.66,2.4583859195374553E-4
6.664,2.4420383503482755E-4
6.668,2.431220106031907E-4
6.672,2.4079007793944014E-4
6.676,2.3437125297839475E-4
6.68,2.2831303616122834E-4
6.684,2.3074113099667997E-4
6.688,2.3384236103403896E-4
6.692,2.3629449641241588E-4
6.696,2.414632131413475E-4
6.7,2.45790510867895E-4
6.704,2.510073086826772E-4
6.708,2.537238900332319E-4
6.712,2.522093358289404E-4
6.716,2.512477141119298E-4
6.72,2.5153620062703296E-4
6.724,2.513438762836309E-4
6.728,2.513919573694814E-4
6.732,2.511275113973035E-4
6.736,2.502380113090687E-4
6.74,2.4843497058967397E-4
6.744,2.453577810952403E-4
6.748,2.4184786182815176E-4
6.752,2.4026118599508435E-4
6.756,2.3833794256106325E-4
6.76,2.3547711795295694E-4
6.764,2.3230376628682208E-4
6.768,2.2545221155312195E-4
6.772,2.2071622459684506E-4
6.776,2.226635085737914E-4
6.78,2.2713504955789045E-4
6.784,2.302603201381747E-4
6.788,2.3280861768825264E-4
6.792,2.3737632084405274E-4
6.796,2.4040542925263595E-4
6.8,2.4018906436630856E-4
6.804,2.4014098328045805E-4
6.808,2.4074199685358963E-4
6.812,2.3913128047759697E-4
6.816,2.3773692898793167E-4
6.82,2.3749652355867904E-4
6.824,2.362223747836401E-4
6.828,2.3586176663976114E-4
6.832,2.3559732066758324E-4
6.836,2.3490014492275055E-4
6.84,2.3485206383690003E-4
6.844,2.3235184737267265E-4
6.848,2.2845727941877994E-4
6.852,2.2513968449509354E-4
6.856,2.2295199508889454E-4
6.86,2.218701706572577E-4
6.864,2.245146303790367E-4
6.868,2.294189011357905E-4
6.872,2.3413084754914213E-4
6.876,2.3410680700621685E-4
6.88,2.361502531548643E-4
6.884,2.3773692898793167E-4
6.888,2.3881875341956856E-4
6.892,2.3881875341956856E-4
6.896,2.365349018416685E-4
6.9,2.3578964501098535E-4
6.904,2.3672722618507062E-4
6.908,2.3737632084405274E-4
6.912,2.3744844247282853E-4
6.916,2.3819369930351168E-4
6.92,2.3689550998554746E-4
6.924,2.3153446891321366E-4
6.928,2.2578877915407564E-4
6.932,2.1816792704676714E-4
6.936,2.0927292616441958E-4
6.94,1.9898357379240678E-4
6.944,1.9184353254360348E-4
6.948,1.949447625809625E-4
6.952,2.0468118246569426E-4
6.956,2.1376850769144385E-4
6.96,2.2261542748794086E-4
6.964,2.3182295542831683E-4
6.968,2.3845814527568958E-4
6.972,2.4006886165168223E-4
6.976,2.3764076681623064E-4
6.98,2.3340963126138422E-4
6.984,2.3016415796647366E-4
6.988,2.3057284719620312E-4
6.992,2.3088537425423156E-4
6.996,2.2992375253722103E-4
7.0,2.3165467162784E-4
7.0040000000000004,2.3076517153960524E-4
7.008,2.2965930656504313E-4
7.0120000000000005,2.296833471079684E-4
7.016,2.2903425244898625E-4
7.0200000000000005,2.2985163090844524E-4
7.024,2.2833707670415361E-4
7.0280000000000005,2.2538008992434617E-4
7.032,2.2569261698237458E-4
7.0360000000000005,2.2653403598475887E-4
7.04,2.236491708337272E-4
7.0440000000000005,2.191776298496282E-4
7.048,2.188410622486745E-4
7.0520000000000005,2.2319240051814723E-4
7.056,2.2711100901496518E-4
7.0600000000000005,2.2951506330749156E-4
7.064,2.2699080630033888E-4
7.0680000000000005,2.2117299491242507E-4
7.072,2.1614852144104496E-4
7.0760000000000005,2.1576387275424073E-4
7.08,2.1956227853643239E-4
7.0840000000000005,2.1951419745058187E-4
7.088,2.1836025139016922E-4
7.0920000000000005,2.1299921031783542E-4
7.096,2.079747368464554E-4
7.1000000000000005,2.107874803687112E-4
7.104,2.172784269585324E-4
7.1080000000000005,2.2037965699589138E-4
7.112,2.202354137383398E-4
7.1160000000000005,2.1754287293071029E-4
7.12,2.138165887772944E-4
7.1240000000000006,2.123020345730028E-4
7.128,2.1634084578444707E-4
7.132000000000001,2.2006712993786297E-4
7.136,2.203075353671156E-4
7.140000000000001,2.1951419745058187E-4
7.144,2.1828812976139344E-4
7.148000000000001,2.178553999887387E-4
7.152,2.1751883238778501E-4
7.156000000000001,2.1614852144104496E-4
7.16,2.130713319466112E-4
7.164000000000001,2.0956141267952275E-4
7.168,2.0816706118985748E-4
7.172,2.0886423693469011E-4
7.176,2.0852766933373643E-4
7.18,2.049696689807974E-4
7.184,1.9722861415886252E-4
7.188,1.9085787028366767E-4
7.192,1.9167524874312664E-4
7.196,1.9542557343946778E-4
7.2,2.0097893885520364E-4
7.204,2.1177314262864702E-4
7.208,2.1819196758969238E-4
7.212,2.222067382582114E-4
7.216,2.2751969824469468E-4
7.22,2.3153446891321366E-4
7.224,2.327845771453274E-4
7.228,2.2992375253722103E-4
7.232,2.2622150892673046E-4
7.236,2.2384149517712932E-4
7.24,2.213412787129019E-4
7.244,2.191776298496282E-4
7.248,2.1648508904199864E-4
7.252,2.138165887772944E-4
7.256,2.10859601997487E-4
7.26,2.074458449020995E-4
7.264,2.009548983122784E-4
7.268,1.9927206030750995E-4
7.272,2.0280602011752368E-4
7.276,2.0256561468827105E-4
7.28,2.0102701994105418E-4
7.284,1.9660356004280567E-4
7.288,1.9338212729082035E-4
7.292,1.9843064130512569E-4
7.296,2.06940993500669E-4
7.3,2.1247031837347963E-4
7.304,2.1340789954756492E-4
7.308,2.1278284543150807E-4
7.312,2.132876968329386E-4
7.316,2.1297516977491018E-4
7.32,2.1290304814613437E-4
7.324,2.1278284543150807E-4
7.328,2.1309537248953648E-4
7.332,2.136723455197428E-4
7.336,2.1590811601179233E-4
7.34,2.14874372666006E-4
7.344,2.1146061557061858E-4
7.348,2.0903252073516696E-4
7.352,2.0590725015488267E-4
7.356,1.9903165487825732E-4
7.36,1.9035301888223715E-4
7.364,1.9218010014455716E-4
7.368,2.0309450663262685E-4
7.372,2.116529399140207E-4
7.376,2.1429739963579967E-4
7.38,2.1485033212308074E-4
7.384,2.149464942947818E-4
7.388,2.144656834362765E-4
7.392,2.1290304814613437E-4
7.396,2.123741562017786E-4
7.4,2.1251839945933017E-4
7.404,2.1182122371449753E-4
7.408,2.1134041285599228E-4
7.412,2.12686683259807E-4
7.416,2.121818318583765E-4
7.42,2.103066695102059E-4
7.424,2.1093172362626278E-4
7.428,2.0982585865170065E-4
7.432,2.0600341232658372E-4
7.436,2.0085873614057734E-4
7.44,1.9133868114217296E-4
7.444,1.9186757308652875E-4
7.448,2.0141166862785838E-4
7.452,2.0646018264216373E-4
7.456,2.0864787204836276E-4
7.46,2.1153273719939436E-4
7.464,2.1235011565885333E-4
7.468,2.123741562017786E-4
7.472,2.133357779187891E-4
7.476,2.1225395348715227E-4
7.48,2.123741562017786E-4
7.484,2.127588048885828E-4
7.488,2.1285496706028385E-4
7.492,2.1124425068429122E-4
7.496,2.0838342607618486E-4
7.5,2.0715735838699637E-4
7.5040000000000004,2.0997010190925222E-4
7.508,2.182640892184682E-4
7.5120000000000005,2.245146303790367E-4
7.516,2.2492331960876616E-4
7.5200000000000005,2.236491708337272E-4
7.524,2.2126915708412613E-4
7.5280000000000005,2.1742267021608396E-4
7.532,2.148022510372302E-4
7.5360000000000005,2.15787913297166E-4
7.54,2.1939399473595554E-4
7.5440000000000005,2.2275967074549243E-4
7.548,2.23264522146923E-4
7.5520000000000005,2.2170188685678087E-4
7.556,2.2098067056902296E-4
7.5600000000000005,2.2345684649032512E-4
7.564,2.2667827924231044E-4
7.5680000000000005,2.294189011357905E-4
7.572,2.3189507705709261E-4
7.5760000000000005,2.3350579343308527E-4
7.58,2.3374619886233793E-4
7.5840000000000005,2.3134214456981155E-4
7.588,2.286015226763315E-4
7.5920000000000005,2.2965930656504313E-4
7.596,2.292025362494631E-4
7.6000000000000005,2.2420210332100828E-4
7.604,2.1535518352451126E-4
7.6080000000000005,2.049215878949469E-4
7.612,1.952092085531404E-4
7.6160000000000005,1.8816532947603813E-4
7.62,1.91434843313874E-4
7.6240000000000006,2.0422441215011422E-4
7.628,2.1331173737586386E-4
7.632000000000001,2.219422922860335E-4
7.636,2.3350579343308527E-4
7.640000000000001,2.377850100737822E-4
7.644,2.38313902018138E-4
7.648000000000001,2.3915532102052224E-4
7.652,2.403573481667854E-4
7.656000000000001,2.4098240228284226E-4
7.66,2.402371454521591E-4
7.664000000000001,2.3891491559126961E-4
7.668,2.3684742889969694E-4
7.672000000000001,2.3600600989731274E-4
7.676,2.3497226655152633E-4
7.68,2.3280861768825264E-4
7.684,2.317027527136905E-4
7.688,2.3011607688062314E-4
7.692,2.2889000919143468E-4
7.696,2.3057284719620312E-4
7.7,2.2807263073197572E-4
7.704,2.2463483309366302E-4
7.708,2.2864960376218203E-4
7.712,2.3677530727092116E-4
7.716,2.411506860833191E-4
7.72,2.4091028065406647E-4
7.724,2.385302669044654E-4
7.728,2.3581368555391062E-4
7.732,2.3348175289016003E-4
7.736,2.3396256374866528E-4
7.74,2.3663106401336956E-4
7.744,2.3646278021289272E-4
7.748,2.3518863143785372E-4
7.752,2.3146234728443788E-4
7.756,2.262455494696557E-4
7.76,2.2280775183134297E-4
7.764,2.1999500830908713E-4
7.768,2.2009117048078824E-4
7.772,2.2064410296806928E-4
7.776,2.2254330585916508E-4
7.78,2.278803063885736E-4
7.784,2.306449688249789E-4
7.788,2.2819283344660204E-4
7.792,2.2622150892673046E-4
7.796,2.243944276644104E-4
7.8,2.2309623834644617E-4
7.804,2.1977864342275977E-4
7.808,2.179996432462903E-4
7.812,2.1893722442037556E-4
7.816,2.1564367003961443E-4
7.82,2.0970565593707432E-4
7.824,2.0761412870257636E-4
7.828,2.1114808851259017E-4
7.832,2.1566771058253968E-4
7.836,2.1607639981226917E-4
7.84,2.1319153466123754E-4
7.844,2.1439356180750073E-4
7.848,2.203075353671156E-4
7.852,2.24178062778083E-4
7.856,2.2461079255073774E-4
7.86,2.2453867092196196E-4
7.864,2.237934140912788E-4
7.868,2.1335981846171438E-4
7.872,1.9722861415886252E-4
7.876,1.952572896389909E-4
7.88,2.003538847391468E-4
7.884,1.9511304638143934E-4
7.888,1.8903078902134763E-4
7.892,1.881893700189634E-4
7.896,1.8025599085362643E-4
7.9,1.7664990941483692E-4
7.904,1.8292449111833068E-4
7.908,1.9145888385679926E-4
7.912,1.9227626231625822E-4
7.916,1.8626612658494233E-4
7.92,1.8662673472882128E-4
7.924,1.9037705942516242E-4
7.928,1.8494389672405284E-4
7.932,1.8253984243152646E-4
7.936,1.8698734287270023E-4
7.94,1.8537662649670758E-4
7.944,1.7650566615728532E-4
7.948,1.7304382797604735E-4
7.952,1.7044744934011888E-4
7.956,1.6496620555315876E-4
7.96,1.6030234022565762E-4
7.964,1.6066294836953658E-4
7.968,1.5893202927891762E-4
7.972,1.748709092383674E-4
7.976,1.868190590722234E-4
7.98,1.8566511301181074E-4
7.984,1.8157822071451595E-4
7.988,1.8037619356825273E-4
7.992,1.7951073402294325E-4
7.996,1.7523151738224634E-4
8.0,1.762652607280327E-4
8.004,1.8362166686316332E-4
8.008000000000001,1.9030493779638663E-4
8.012,1.8333318034806015E-4
8.016,1.6128800248559346E-4
8.02,1.4385860886477735E-4
8.024000000000001,1.572972723599997E-4
8.028,1.6751450310323673E-4
8.032,1.7761153113184742E-4
8.036,1.80400234111178E-4
8.040000000000001,1.642209487224756E-4
8.044,1.6631247595697354E-4
8.048,1.881172483901876E-4
8.052,1.9701224927253514E-4
8.056000000000001,1.9403122194980248E-4
8.06,1.9559385723994462E-4
8.064,1.9869508727730364E-4
8.068,1.9859892510560258E-4
8.072000000000001,1.9643527624232883E-4
8.076,1.90064532367134E-4
8.08,1.804723557399538E-4
8.084,1.7160139540053156E-4
8.088000000000001,1.689809762216778E-4
8.092,1.737169631779547E-4
8.096,1.783567879625306E-4
8.1,1.6431711089417666E-4
8.104000000000001,1.462145820714532E-4
8.108,1.5515766403965123E-4
8.112,1.7306786851897262E-4
8.116,1.7607293638463055E-4
8.120000000000001,1.7054361151181994E-4
8.124,1.7455838218033892E-4
8.128,1.8472753183772545E-4
8.132,1.9186757308652875E-4
8.136000000000001,1.9160312711435085E-4
8.14,1.800877070531496E-4
8.144,1.644853946946535E-4
8.148,1.6811551667636831E-4
8.152000000000001,1.795588151087938E-4
8.156,1.9085787028366767E-4
8.16,1.9090595136951822E-4
8.164,1.8869422142039395E-4
8.168000000000001,1.9112231625584557E-4
8.172,1.8972796476618027E-4
8.176,1.8513622106745492E-4
8.18,1.8253984243152646E-4
8.184000000000001,1.8698734287270023E-4
8.188,1.916992892860519E-4
8.192,1.8833361327651497E-4
8.196,1.896318025944792E-4
8.2,1.8869422142039395E-4
8.204,1.8405439663581809E-4
8.208,1.90521302682714E-4
8.212,1.9867104673437837E-4
8.216,1.9516112746728988E-4
8.22,1.8732391047365392E-4
8.224,1.8600168061276443E-4
8.228,1.8573723464058656E-4
8.232,1.8006366651022432E-4
8.236,1.7826062579082955E-4
8.24,1.8169842342914225E-4
8.244,1.7927032859369062E-4
8.248,1.722264495165884E-4
8.252,1.7140907105712942E-4
8.256,1.781644636191285E-4
8.26,1.66721165186703E-4
8.264,1.3465108092440138E-4
8.268,1.2097201199992641E-4
8.272,1.3380966192201718E-4
8.276,1.4405093320817947E-4
8.28,1.4320951420579523E-4
8.284,1.4239213574633627E-4
8.288,1.4554144686954582E-4
8.292,1.5369119092121017E-4
8.296,1.594609212232734E-4
8.3,1.6378821894982086E-4
8.304,1.5164774477256275E-4
8.308,1.3453087820977506E-4
8.312,1.404448517693899E-4
8.316,1.520804745452175E-4
8.32,1.4933985265173745E-4
8.324,1.4727236596016478E-4
8.328,1.4914752830833534E-4
8.332,1.3902645973679935E-4
8.336,1.4114202751422256E-4
8.34,1.4842631202057743E-4
8.344,1.4527700089736787E-4
8.348,1.3717533793155406E-4
8.352,1.271985126175697E-4
8.356,1.1984210648243902E-4
8.36,1.1390409237989891E-4
8.364,1.2640517470103598E-4
8.368,1.366945270730488E-4
8.372,1.2715043153171916E-4
8.376,1.1626006558657475E-4
8.38,1.233520257495275E-4
8.384,1.405890950269415E-4
8.388,1.460703388139016E-4
8.392,1.3794463530516251E-4
8.396,1.3219894554602452E-4
8.4,1.3453087820977506E-4
8.404,1.3712725684570355E-4
8.408,1.413103113146994E-4
8.412,1.4385860886477735E-4
8.416,1.3164601305874345E-4
8.42,1.1510611952616209E-4
8.424,1.286409451930855E-4
8.428,1.5640777227176494E-4
8.432,1.6797127341881674E-4
8.436,1.6470175958098086E-4
8.44,1.5402775852216386E-4
8.444,1.42824865518991E-4
8.448,1.4566164958417212E-4
8.452,1.5051783925507534E-4
8.456,1.401082841684362E-4
8.46,1.1438490323840418E-4
8.464,1.001048207407976E-4
8.468,1.1594753852854631E-4
8.472,1.320787428313982E-4
8.476,1.2472233669626754E-4
8.48,1.1469743029643262E-4
8.484,1.2678982338784018E-4
8.488,1.5097460957065535E-4
8.492,1.5823485353408498E-4
8.496,1.5184006911596486E-4
8.5,1.326557158616045E-4
8.504,1.258522422137549E-4
8.508000000000001,1.413103113146994E-4
8.512,1.5184006911596486E-4
8.516,1.58691623849665E-4
8.52,1.5316229897685438E-4
8.524000000000001,1.3493956743950455E-4
8.528,1.3142964817241604E-4
8.532,1.4133435185762467E-4
8.536,1.5097460957065535E-4
8.540000000000001,1.581627319053092E-4
8.544,1.5773000213265445E-4
8.548,1.5015723111119642E-4
8.552,1.3376158083616663E-4
8.556000000000001,1.393389867948278E-4
8.56,1.5833101570578604E-4
8.564,1.6638459758574933E-4
8.568,1.5220067725984381E-4
8.572000000000001,1.1433682215255365E-4
8.576,9.618621224397964E-5
8.58,1.2352030955000435E-4
8.584,1.5203239345936697E-4
8.588000000000001,1.5345078549195755E-4
8.592,1.3753594607543302E-4
8.596,1.2419344475191174E-4
8.6,1.47200244331389E-4
8.604000000000001,1.7484686869544212E-4
8.608,1.8273216677492857E-4
8.612,1.7866931502055902E-4
8.616,1.6631247595697354E-4
8.620000000000001,1.634997324347177E-4
8.624,1.6592782727016932E-4
8.628,1.672740976739841E-4
8.632,1.6559125966921563E-4
8.636000000000001,1.528497719188259E-4
8.64,1.3895433810802356E-4
8.644,1.529940151763775E-4
8.648,1.6592782727016932E-4
8.652000000000001,1.6184093497287452E-4
8.656,1.4030060851183833E-4
8.66,1.27318715332196E-4
8.664,1.4263254117558892E-4
8.668000000000001,1.435460818067489E-4
8.672,1.4042081122646465E-4
8.676,1.497004607956164E-4
8.68,1.530901773480786E-4
8.684000000000001,1.479935822479227E-4
8.688,1.4426729809450682E-4
8.692,1.397957571104078E-4
8.696,1.3049206699833078E-4
8.700000000000001,1.3856968942121937E-4
8.704,1.635718540634935E-4
8.708,1.6511044881071035E-4
8.712,1.5585483978448387E-4
8.716,1.603744618544334E-4
8.72,1.6722601658813356E-4
8.724,1.656153002121409E-4
8.728,1.5128713662868377E-4
8.732,1.4551740632662055E-4
8.736,1.5316229897685438E-4
8.74,1.5559039381230597E-4
8.744,1.5544615055475438E-4
8.748,1.4364224397844997E-4
8.752,1.27775485647776E-4
8.756,1.3895433810802356E-4
8.76,1.449404332964142E-4
8.764,1.4385860886477735E-4
8.768,1.402525274259878E-4
8.772,1.4703196053091216E-4
8.776,1.5821081299115974E-4
8.78,1.617688133440987E-4
8.784,1.5797040756190708E-4
8.788,1.5203239345936697E-4
8.792,1.4082950045619415E-4
8.796,1.3344905377813822E-4
8.8,1.3277591857623083E-4
8.804,1.4628670370022898E-4
8.808,1.5486917752454806E-4
8.812,1.536671503782849E-4
8.816,1.4311335203409417E-4
8.82,1.4419517646573104E-4
8.824,1.6246598908893137E-4
8.828,1.6400458383614825E-4
8.832,1.5046975816922483E-4
8.836,1.6905309785045358E-4
8.84,1.9278111371768874E-4
8.844,1.9958458736553836E-4
8.848,1.9588234375504776E-4
8.852,1.7152927377175574E-4
8.856,1.2907367496574023E-4
8.86,1.374878649895825E-4
8.864,1.7765961221769797E-4
8.868,1.884778565340666E-4
8.872,1.8374186957778962E-4
8.876,1.5357098820658385E-4
8.88,1.3743978390373196E-4
8.884,1.6650480030037566E-4
8.888,1.8749219427413076E-4
8.892,1.887423025062445E-4
8.896,1.7227453060243892E-4
8.9,1.5857142113503866E-4
8.904,1.555663532693807E-4
8.908,1.659518678130946E-4
8.912,1.7927032859369062E-4
8.916,1.7802022036157692E-4
8.92,1.7751536896014637E-4
8.924,1.8540066703963285E-4
8.928,1.924205055738098E-4
8.932,1.9867104673437837E-4
8.936,1.8982412693788133E-4
8.94,1.5217663671691854E-4
8.944,1.1957766051026112E-4
8.948,1.1176448405955045E-4
8.952,1.39266865166052E-4
8.956,1.6931754382263148E-4
8.96,1.630429621191377E-4
8.964,1.5736939398877547E-4
8.968,1.741256524076842E-4
8.972,1.8814128893311288E-4
8.976,1.9617083027015093E-4
8.98,1.9535345181069197E-4
8.984,1.9554577615409408E-4
8.988,1.9405526249272772E-4
8.992,1.9311768131864246E-4
8.996,1.9379081652054982E-4
9.0,1.9504092475266355E-4
9.004,1.9549769506824356E-4
9.008000000000001,1.9309364077571718E-4
9.012,1.7979922053804642E-4
9.016,1.4883500125030693E-4
9.02,1.6068698891246185E-4
9.024000000000001,1.7075997639814732E-4
9.028,1.7414969295060945E-4
9.032,1.973728574164141E-4
9.036,2.0136358754200786E-4
9.040000000000001,2.0088277668350258E-4
9.044,1.9554577615409408E-4
9.048,1.694377465372578E-4
9.052,1.5522978566842702E-4
9.056000000000001,1.8234751808812437E-4
9.06,2.181198459609166E-4
9.064,2.2545221155312195E-4
9.068,2.2751969824469468E-4
9.072000000000001,2.2059602188221876E-4
9.076,2.1285496706028385E-4
9.08,2.1004222353802803E-4
9.084,2.0922484507856907E-4
9.088000000000001,2.0571492581148058E-4
9.092,2.0004135768111837E-4
9.096,1.949447625809625E-4
9.1,1.8915099173597396E-4
9.104000000000001,1.790058826215127E-4
9.108,1.7253897657461682E-4
9.112,1.5986961045300288E-4
9.116,1.382812029061162E-4
9.120000000000001,1.544604882948186E-4
9.124,1.9679588438620778E-4
9.128,2.113884939418428E-4
9.132,2.1528306189573548E-4
9.136000000000001,2.1049899385360802E-4
9.14,1.9819023587587303E-4
9.144,1.9391101923517615E-4
9.148,1.9876720890607942E-4
9.152000000000001,2.0227712817316788E-4
9.156,1.8778068078923393E-4
9.16,1.4974854188146692E-4
9.164,1.6013405642518078E-4
9.168000000000001,1.9263687046013717E-4
9.172,2.045609797510679E-4
9.176,2.1021050733850487E-4
9.18,2.0321470934725315E-4
9.184000000000001,1.8895866739257185E-4
9.188,1.9278111371768874E-4
9.192,1.976853844744425E-4
9.196,1.958583032121225E-4
9.200000000000001,1.9773346556029305E-4
9.204,2.010029793981289E-4
9.208,1.8256388297445173E-4
9.212,1.7612101747048107E-4
9.216000000000001,1.9516112746728988E-4
9.22,2.0032984419622154E-4
9.224,1.8366974794901383E-4
9.228,1.842948020650707E-4
9.232,1.994403441079868E-4
9.236,2.066765475284911E-4
9.24,2.0422441215011422E-4
9.244,1.8112145039893594E-4
9.248,1.4450770352375945E-4
9.252,1.5296997463345224E-4
9.256,1.8717966721610235E-4
9.26,2.123020345730028E-4
9.264,2.1343194009049016E-4
9.268,1.979017493607699E-4
9.272,1.7244281440291577E-4
9.276,1.714811926859052E-4
9.28,2.0460906083691842E-4
9.284,2.175909540165608E-4
9.288,2.1783135944581345E-4
9.292,2.132155752041628E-4
9.296,2.057630068973311E-4
9.3,2.0057024962547417E-4
9.304,1.9792578990369513E-4
9.308,1.9311768131864246E-4
9.312,1.8222731537349804E-4
9.316,1.6215346203090293E-4
9.32,1.6789915179004096E-4
9.324,1.6835592210562094E-4
9.328,1.800877070531496E-4
9.332,1.8006366651022432E-4
9.336,1.6133608357144397E-4
9.34,1.6193709714457555E-4
9.344,1.960025464696741E-4
9.348,2.0734968273039846E-4
9.352,2.1886510279159978E-4
9.356,2.2321644106107247E-4
9.36,2.2388957626297984E-4
9.364,2.2538008992434617E-4
9.368,2.2456271146488723E-4
9.372,2.2112491382657453E-4
9.376,2.1696589990050398E-4
9.38,2.136723455197428E-4
9.384,2.071333178440711E-4
9.388,1.9987307388064153E-4
9.392,1.8768451861753287E-4
9.396,1.7335635503407576E-4
9.4,1.9855084401975207E-4
9.404,2.0617169612706057E-4
9.408,2.0191652002928895E-4
9.412,2.0984989919462592E-4
9.416,2.12229912944227E-4
9.42,2.1338385900463965E-4
9.424,2.1408103474947231E-4
9.428,2.0847958824788592E-4
9.432,2.1448972397920178E-4
9.436,2.3413084754914213E-4
9.44,2.3610217206901377E-4
9.444,2.3127002294103576E-4
9.448,2.2675040087108625E-4
9.452,2.216057246850798E-4
9.456,2.1836025139016922E-4
9.46,2.172784269585324E-4
9.464,2.172784269585324E-4
9.468,2.121097102296007E-4
9.472,2.0210884437269104E-4
9.476,1.9092999191244346E-4
9.48,1.8465541020894967E-4
9.484,1.928772758893898E-4
9.488,1.8965584313740448E-4
9.492,1.985748845626773E-4
9.496,2.2819283344660204E-4
9.5,2.4204018617155387E-4
9.504,2.450692945801371E-4
9.508000000000001,2.4050159142433697E-4
9.512,2.361502531548643E-4
9.516,2.439153485197244E-4
9.52,2.477618353877666E-4
9.524000000000001,2.47160821814635E-4
9.528,2.480503219028698E-4
9.532,2.5011780859444244E-4
9.536,2.5232953854356665E-4
9.540000000000001,2.4026118599508435E-4
9.544,2.013395469990826E-4
9.548,2.1908146767792713E-4
9.552,2.6158514756979313E-4
9.556000000000001,2.7524017595134285E-4
9.56,2.7141772962622595E-4
9.564,2.448288891508845E-4
9.568,2.08671912591288E-4
9.572000000000001,2.0852766933373643E-4
9.576,2.3490014492275055E-4
9.58,2.6406132349109535E-4
9.584,2.7076863496724383E-4
9.588000000000001,2.6358051263259004E-4
9.592,2.5480571446486887E-4
9.596,2.4542990272401606E-4
9.6,2.3941976699270014E-4
9.604000000000001,2.4052563196726225E-4
9.608,2.3689550998554746E-4
9.612,2.270388873861894E-4
9.616,2.1836025139016922E-4
9.620000000000001,2.0689291241481847E-4
9.624,1.87973005132636E-4
9.628,1.728755441755705E-4
9.632,1.743179767510863E-4
9.636000000000001,1.8657865364297076E-4
9.64,1.8830957273358972E-4
9.644,1.84775612923576E-4
9.648,2.0066641179717522E-4
9.652000000000001,2.1497053483770706E-4
9.656,2.222067382582114E-4
9.66,2.1768711618826186E-4
9.664,2.1398487257777126E-4
9.668000000000001,2.107874803687112E-4
9.672,2.093450477931954E-4
9.676,2.2136531925582718E-4
9.68,2.2487523852291564E-4
9.684000000000001,2.210287516548735E-4
9.688,2.181198459609166E-4
9.692,2.2033157591004086E-4
9.696,2.1189334534327332E-4
9.700000000000001,1.9083382974074243E-4
9.704,1.920839379728561E-4
9.708,1.92348383945034E-4
9.712,1.960506275555246E-4
9.716000000000001,1.9621891135600145E-4
9.72,2.071333178440711E-4
9.724,2.1980268396568504E-4
9.728,2.1872085953404818E-4
9.732,2.1453780506505232E-4
9.736,2.1535518352451126E-4
9.74,2.1845641356187028E-4
9.744,2.141531563782481E-4
9.748,2.092008045356438E-4
9.752,2.063399799275374E-4
9.756,2.0408016889256263E-4
9.76,1.982863980475741E-4
9.764,1.9145888385679926E-4
9.768,1.7600081475585477E-4
9.772,1.7311594960482313E-4
9.776,1.8487177509527702E-4
9.78,1.829004505754054E-4
9.784,1.8910291065012344E-4
9.788,2.0333491206187947E-4
9.792,2.0064237125424995E-4
9.796,2.0225308763024264E-4
9.8,2.1134041285599228E-4
9.804,2.1783135944581345E-4
9.808,2.197546028798345E-4
9.812,2.199469272232366E-4
9.816,2.1814388650384187E-4
9.82,2.1598023764056811E-4
9.824,2.1256648054518069E-4
9.828,2.0838342607618486E-4
9.832,1.9881528999192994E-4
9.836,1.7840486904838112E-4
9.84,1.7381312534965577E-4
9.844,1.907857486548919E-4
9.848,1.888625052208708E-4
9.852,1.8941543770815186E-4
9.856,2.117010209998712E-4
9.86,2.104509127677575E-4
9.864,2.0347915531943104E-4
9.868,2.1251839945933017E-4
9.872,2.105711154823838E-4
9.876,2.0857575041958697E-4
9.88,2.1066727765408486E-4
9.884,2.0968161539414908E-4
9.888,2.0545047983930268E-4
9.892,2.0136358754200786E-4
9.896,2.0004135768111837E-4
9.9,2.006904523401005E-4
9.904,1.9456011389415825E-4
9.908,1.888625052208708E-4
9.912,1.8220327483057277E-4
9.916,1.895837215086287E-4
9.92,1.9239646503088452E-4
9.924,1.99368222479211E-4
9.928,1.9001645128128347E-4
9.932,1.8273216677492857E-4
9.936,2.0559472309685425E-4
9.94,2.2384149517712932E-4
9.944,2.27183130643741E-4
9.948,2.1997096776616188E-4
9.952,2.1549942678206283E-4
9.956,2.0708523675822059E-4
9.96,2.0040196582499733E-4
9.964,1.9898357379240678E-4
9.968,2.010751010269047E-4
9.972,2.0400804726378684E-4
9.976,2.0177227677173736E-4
9.98,1.955217356111688E-4
9.984,1.793424502224664E-4
9.988,1.5736939398877547E-4
9.992,1.66264394871123E-4
9.996,1.8761239698875709E-4
10.0,1.981661953329478E-4
10.004,2.0417633106426368E-4
10.008000000000001,2.1013838570972906E-4
10.012,2.1715822424390606E-4
10.016,2.130232508607607E-4
10.02,2.060755339553595E-4
10.024000000000001,2.0756604761672584E-4
10.028,2.1001818299510276E-4
10.032,2.1259052108810596E-4
10.036,2.104509127677575E-4
10.040000000000001,1.8744411318828024E-4
10.044,1.743179767510863E-4
10.048,1.8941543770815186E-4
10.052,2.1475416995137968E-4
10.056000000000001,2.2569261698237458E-4
10.06,2.2689464412863782E-4
10.064,2.2797646856027466E-4
10.068,2.1297516977491018E-4
10.072000000000001,1.8116953148478645E-4
10.076,1.7496707141006844E-4
10.08,2.0970565593707432E-4
10.084,2.2340876540447458E-4
10.088000000000001,2.2235098151576296E-4
10.092,2.1970652179398398E-4
10.096,2.1398487257777126E-4
10.1,2.0246945251657E-4
10.104000000000001,2.0335895260480474E-4
10.108,2.0754200707380057E-4
10.112,2.073256421874732E-4
10.116,2.043686554076658E-4
10.120000000000001,1.9398314086395193E-4
10.124,1.6850016536317254E-4
10.128,1.5825889407701025E-4
10.132,1.7689031484408954E-4
10.136000000000001,1.8568915355473601E-4
10.14,1.9359849217714774E-4
10.144,1.9960862790846363E-4
10.148,2.0215692545854158E-4
10.152000000000001,2.002096414815952E-4
10.156,1.9258878937428663E-4
10.16,1.84775612923576E-4
10.164,1.7989538270974748E-4
10.168000000000001,1.8032811248240222E-4
10.172,1.8162630180036646E-4
10.176,1.9080978919781716E-4
10.18,1.8388611283534124E-4
10.184000000000001,1.6633651649989881E-4
10.188,1.7621717964218218E-4
10.192,1.9218010014455716E-4
10.196,2.049215878949469E-4
10.200000000000001,2.0790261521767958E-4
10.204,2.0420037160718895E-4
10.208,1.9924801976458468E-4
10.212,1.9588234375504776E-4
10.216000000000001,1.934302083766709E-4
10.22,1.8907887010719817E-4
10.224,1.8499197780990335E-4
10.228,1.8294853166125595E-4
10.232000000000001,1.7977517999512115E-4
10.236,1.6994259793868833E-4
10.24,1.6777894907541463E-4
10.244,1.6143224574314503E-4
10.248,1.457337712129479E-4
10.252,1.5852334004918815E-4
10.256,1.833812614339107E-4
10.26,1.987912494490047E-4
10.264,2.029983444609258E-4
10.268,2.0501775006664794E-4
10.272,2.0388784454916054E-4
10.276,1.8626612658494233E-4
10.28,1.7085613856984835E-4
10.284,1.928772758893898E-4
10.288,2.1290304814613437E-4
10.292,2.1713418370098082E-4
10.296,2.1273476434565753E-4
10.3,2.029983444609258E-4
10.304,1.8999241073835817E-4
10.308,1.757123282407516E-4
10.312,1.641728676366251E-4
10.316,1.547249342669965E-4
10.32,1.4306527094824366E-4
10.324,1.4842631202057743E-4
10.328,1.7244281440291577E-4
10.332,1.8446308586554755E-4
10.336,1.7297170634727156E-4
10.34,1.5051783925507534E-4
10.344,1.5864354276381448E-4
10.348,1.8381399120656543E-4
10.352,1.8624208604201708E-4
10.356,1.8328509926220964E-4
10.36,1.8775664024630866E-4
10.364,1.8826149164773918E-4
10.368,1.8669885635759706E-4
10.372,1.8345338306268648E-4
10.376,1.795588151087938E-4
10.38,1.7511131466762002E-4
10.384,1.7265917928924315E-4
10.388,1.634997324347177E-4
10.392,1.5256128540372277E-4
10.396,1.5054187979800061E-4
10.4,1.4715216324553846E-4
10.404,1.6143224574314503E-4
10.408,1.8484773455235178E-4
10.412,1.9179545145775294E-4
10.416,1.7484686869544212E-4
10.42,1.7114462508495152E-4
10.424,1.8234751808812437E-4
10.428,1.8592955898398864E-4
10.432,1.870113834156255E-4
10.436,1.8907887010719817E-4
10.44,1.865546131000455E-4
10.444,1.827802478607791E-4
10.448,1.7475070652374106E-4
10.452,1.6842804373439673E-4
10.456,1.7104846291325046E-4
10.46,1.7018300336794098E-4
10.464,1.6287467831866087E-4
10.468,1.5289785300467645E-4
10.472,1.4306527094824366E-4
10.476,1.603263807685829E-4
10.48,1.6758662473201252E-4
10.484,1.6289871886158611E-4
10.488,1.6919734110800518E-4
10.492,1.728755441755705E-4
10.496,1.7583253095537792E-4
10.5,1.767941526723885E-4
10.504,1.7527959846809686E-4
10.508000000000001,1.7186584137270945E-4
10.512,1.6907713839337885E-4
10.516,1.6698561115888094E-4
10.52,1.6410074600784928E-4
10.524000000000001,1.62249624202604E-4
10.528,1.6193709714457555E-4
10.532,1.626583134323335E-4
10.536,1.5647989390054075E-4
10.540000000000001,1.314536887153413E-4
10.544,1.3243935097527715E-4
10.548,1.5539806946890386E-4
10.552,1.5633565064298915E-4
10.556000000000001,1.639084216644472E-4
10.56,1.7311594960482313E-4
10.564,1.7088017911277362E-4
10.568,1.7097634128447468E-4
10.572000000000001,1.6645671921452511E-4
10.576,1.616486106294724E-4
10.58,1.678751112471157E-4
10.584,1.7472666598081582E-4
10.588000000000001,1.7905396370736324E-4
10.592,1.8758835644583181E-4
10.596,1.94536073351233E-4
10.6,1.949447625809625E-4
10.604000000000001,1.9275707317476347E-4
10.608,1.867469374434476E-4
10.612,1.7883759882103586E-4
10.616,1.6816359776221886E-4
10.620000000000001,1.3792059476223724E-4
10.624,1.2912175605159077E-4
10.628,1.5448452883774387E-4
10.632,1.5359502874950912E-4
10.636000000000001,1.6438923252295245E-4
10.64,1.8624208604201708E-4
10.644,1.7936649076539168E-4
10.648,1.6227366474552926E-4
10.652000000000001,1.7470262543789055E-4
10.656,1.9237242448795928E-4
10.66,1.971084114442362E-4
10.664,1.9266091100306242E-4
10.668000000000001,1.8662673472882128E-4
10.672,1.8104932877016015E-4
10.676,1.7628930127095796E-4
10.68,1.7186584137270945E-4
10.684000000000001,1.6874057079242517E-4
10.688,1.6674520572962828E-4
10.692,1.6460559740927983E-4
10.696,1.5955708339497447E-4
10.700000000000001,1.3349713486398874E-4
10.704,1.301554993973771E-4
10.708,1.5131117717160904E-4
10.712,1.6102355651341556E-4
10.716000000000001,1.7991942325267275E-4
10.72,1.8917503227889923E-4
10.724,1.7648162561436005E-4
10.728,1.3356925649276452E-4
10.732000000000001,1.3092479677098552E-4
10.736,1.6874057079242517E-4
10.74,1.912906000563224E-4
10.744,1.9701224927253514E-4
10.748000000000001,1.9263687046013717E-4
10.752,1.848236940094265E-4
10.756,1.7662586887191164E-4
10.76,1.7600081475585477E-4
10.764,1.7775577438939902E-4
10.768,1.784289095913064E-4
10.772,1.7580849041245265E-4
10.776,1.714811926859052E-4
10.78,1.6895693567875252E-4
10.784,1.6609611107064616E-4
10.788,1.5479705589577228E-4
10.792,1.2666962067321385E-4
10.796,1.2258272837591908E-4
10.8,1.589560698218429E-4
10.804,1.7621717964218218E-4
10.808,1.7943861239416747E-4
10.812,1.7595273367000422E-4
10.816,1.650623677248598E-4
10.82,1.5474897480992176E-4
10.824,1.4900328505078377E-4
10.828,1.588839481930671E-4
10.832,1.7739516624552007E-4
10.836,1.8145801799988962E-4
10.84,1.7693839592994006E-4
10.844,1.695098681660336E-4
10.848,1.5813869136238392E-4
10.852,1.4546932524077E-4
10.856,1.3616563512869301E-4
10.86,1.4498851438226473E-4
10.864,1.578261643043555E-4
10.868,1.5929263742279657E-4
10.872,1.6862036807779884E-4
10.876,1.6991855739576306E-4
10.88,1.5962920502375025E-4
10.884,1.5539806946890386E-4
10.888,1.6078315108416293E-4
10.892,1.6991855739576306E-4
10.896,1.7595273367000422E-4
10.9,1.8366974794901383E-4
10.904,1.8292449111833068E-4
10.908,1.8054447736872957E-4
10.912,1.785491123059327E-4
10.916,1.7604889584170528E-4
10.92,1.7621717964218218E-4
10.924,1.767220310436127E-4
10.928,1.7414969295060945E-4
10.932,1.584271778774871E-4
10.936,1.50301474368748E-4
10.94,1.703032060825673E-4
10.944,1.8802108621848655E-4
10.948,1.906655459402656E-4
10.952,1.7258705766046734E-4
10.956,1.602542591398071E-4
10.96,1.8540066703963285E-4
10.964,2.021328849156163E-4
10.968,2.0006539822404364E-4
10.972,1.994403441079868E-4
10.976,2.071333178440711E-4
10.98,2.0905656127809223E-4
10.984,1.9674780330035724E-4
10.988,1.90064532367134E-4
10.992,1.9564193832579513E-4
10.996,1.9220414068748243E-4
11.0,1.8246772080275067E-4
11.004,1.6862036807779884E-4
11.008000000000001,1.5712898855952285E-4
11.012,1.5436432612311754E-4
11.016,1.553740289259786E-4
11.02,1.4167091945857836E-4
11.024000000000001,1.2880922899356233E-4
11.028,1.53402704406107E-4
11.032,1.745103010944884E-4
11.036,1.852083426962307E-4
11.040000000000001,1.82131153201797E-4
11.044,1.8056851791165484E-4
11.048,1.7277938200386945E-4
11.052,1.6830784101977043E-4
11.056000000000001,1.7965497728049485E-4
11.06,1.8400631554996754E-4
11.064,1.8561703192596023E-4
11.068,1.8513622106745492E-4
11.072000000000001,1.800877070531496E-4
11.076,1.659518678130946E-4
11.08,1.5698474530197128E-4
11.084,1.6628843541404827E-4
11.088000000000001,1.736688820921042E-4
11.092,1.712888683425031E-4
11.096,1.7628930127095796E-4
11.1,1.7758749058892218E-4
11.104000000000001,1.784289095913064E-4
11.108,1.800155854243738E-4
11.112,1.7494303086714317E-4
11.116,1.7727496353089374E-4
11.120000000000001,1.8352550469146226E-4
11.124,1.8273216677492857E-4
11.128,1.792943691366159E-4
11.132,1.7648162561436005E-4
11.136000000000001,1.7311594960482313E-4
11.14,1.656153002121409E-4
11.144,1.614562862860703E-4
11.148,1.5912435362231973E-4
11.152000000000001,1.5325846114855543E-4
11.156,1.4881096070738166E-4
11.16,1.576819210468039E-4
11.164,1.7463050380911476E-4
11.168000000000001,1.8412651826459387E-4
11.172,1.8044831519702854E-4
11.176,1.721543278878126E-4
11.18,1.7607293638463055E-4
11.184000000000001,1.737890848067305E-4
11.188,1.681876383051441E-4
11.192,1.66721165186703E-4
11.196,1.644853946946535E-4
11.200000000000001,1.6116779977096713E-4
11.204,1.552538262113523E-4
11.208,1.4174304108735414E-4
11.212,1.3318460780596032E-4
11.216000000000001,1.3763210824713407E-4
11.22,1.343145133234477E-4
11.224,1.2330394466367696E-4
11.228,1.1640430884412632E-4
11.232000000000001,1.3246339151820242E-4
11.236,1.3344905377813822E-4
11.24,1.3905050027972462E-4
11.244,1.533546233202565E-4
11.248000000000001,1.5417200177971543E-4
11.252,1.558307992415586E-4
11.256,1.5924455633694606E-4
11.26,1.5657605607224178E-4
11.264,1.487147985356806E-4
11.268,1.425604195468131E-4
11.272,1.3633391892916986E-4
11.276,1.2695810718831705E-4
11.28,1.2412132312313595E-4
11.284,1.2097201199992641E-4
11.288,1.0573030778530929E-4
11.292,1.0964891628212726E-4
11.296,1.2739083696097179E-4
11.3,1.2787164781947707E-4
11.304,1.317421752304445E-4
11.308,1.3212682391724873E-4
11.312,1.3712725684570355E-4
11.316,1.4275274389021522E-4
11.32,1.4566164958417212E-4
11.324,1.5171986640133856E-4
11.328,1.5405179906508913E-4
11.332,1.520804745452175E-4
11.336,1.5128713662868377E-4
11.34,1.489071228790827E-4
11.344,1.4763297410404374E-4
11.348,1.474646903035669E-4
11.352,1.4539720361199423E-4
11.356,1.4121414914299837E-4
11.36,1.3784847313346146E-4
11.364,1.2996317505397498E-4
11.368,1.2426556638068753E-4
11.372,1.3289612129085716E-4
11.376,1.372234190174046E-4
11.38,1.404448517693899E-4
11.384,1.5256128540372277E-4
11.388,1.5559039381230597E-4
11.392,1.510226906565059E-4
11.396,1.4604629827097635E-4
11.4,1.4162283837272784E-4
11.404,1.3525209449753297E-4
11.408,1.2614072872885808E-4
11.412,1.1549076821296631E-4
11.416,1.0854305130756514E-4
11.42,1.1457722758180629E-4
11.424,1.1859199825032531E-4
11.428,1.170774440460337E-4
11.432,1.058505104999356E-4
11.436,1.0190786146019236E-4
11.44,1.1361560586479575E-4
11.444,1.1832755227814742E-4
11.448,1.119327678600273E-4
11.452,1.1731784947528633E-4
11.456,1.3837736507781725E-4
11.46,1.4518083872566684E-4
11.464,1.4143051402932573E-4
11.468,1.404448517693899E-4
11.472,1.3909858136557514E-4
11.476,1.341702700658961E-4
11.48,1.2727063424634549E-4
11.484,1.214287823155064E-4
11.488,1.162841061295E-4
11.492,1.1253378143315888E-4
11.496,1.0712465927497458E-4
11.5,9.48880229260154E-5
11.504,6.873191222332862E-5
11.508000000000001,7.089556108660234E-5
11.512,1.0200402363189342E-4
11.516,1.1416853835207681E-4
11.52,1.0657172678769351E-4
11.524000000000001,1.0140301005876184E-4
11.528,1.076295106764051E-4
11.532,1.0265311829087554E-4
11.536,9.5032266183567E-5
11.540000000000001,1.0484080769707454E-4
11.544,1.1121155157226937E-4
11.548,1.092883081382483E-4
11.552,1.032781724069324E-4
11.556000000000001,9.758056373364494E-5
11.56,9.318114437832169E-5
11.564,8.856536013667108E-5
11.568,8.450250838230153E-5
11.572000000000001,8.332452177896361E-5
11.576,8.301199472093519E-5
11.58,7.577579130043086E-5
11.584,6.625573630202647E-5
11.588000000000001,6.618361467325068E-5
11.592,7.592003455798243E-5
11.596,8.53198868417605E-5
11.6,9.483994184016488E-5
11.604000000000001,1.0133088842998605E-4
11.608,1.0541778072728086E-4
11.612,1.0818244316368616E-4
11.616,1.1000952442600621E-4
11.620000000000001,1.0823052424953668E-4
11.624,1.0359069946496081E-4
11.628,1.0015290182664813E-4
11.632,9.849410436480493E-5
11.636000000000001,9.44312526104354E-5
11.64,8.693060321775316E-5
11.644,7.368426406593292E-5
11.648,6.401996580997695E-5
11.652000000000001,7.089556108660234E-5
11.656,8.060794042840883E-5
11.66,7.971844034017407E-5
11.664,6.769816887754228E-5
11.668000000000001,7.164081791728551E-5
11.672,8.447846783937626E-5
11.676,9.279649569151748E-5
11.68,9.06088062853185E-5
11.684000000000001,8.404573806672152E-5
11.688,8.327644069311309E-5
11.692,8.272350820583203E-5
11.696,8.152148105956886E-5
11.700000000000001,7.892510242364039E-5
11.704,7.418911546736344E-5
11.708,6.85395878799265E-5
11.712,6.173611423207692E-5
11.716000000000001,5.264878900632727E-5
11.72,4.086892297294811E-5
11.724,2.7310056763099444E-5
11.728,6.947716905401178E-6
11.732000000000001,-5.6495275874369454E-6
11.736,2.0290218228922475E-5
11.74,4.4234598982485014E-5
11.744,5.697608673287472E-5
11.748000000000001,6.185631694670323E-5
11.752,5.9043573424447394E-5
11.756,5.7168411076276824E-5
11.76,5.8514681480091585E-5
11.764000000000001,5.66635596748463E-5
11.768,5.334596475115991E-5
11.772,5.123039697373672E-5
11.776,4.8537856166107194E-5
11.78,4.610976133065557E-5
11.784,4.209499066213655E-5
11.788,3.67820306756533E-5
11.792,3.279130055005954E-5
11.796,3.0844016573113194E-5
11.8,2.8464002823512095E-5
11.804,1.3606947295699195E-5
11.808,1.4664731184410792E-6
11.812,1.1491379518275998E-5
11.816,2.868036770983947E-5
11.82,4.1830544689958655E-5
11.824,4.41143962678587E-5
11.828,4.055639591491968E-5
11.832,4.1253571659752324E-5
11.836,4.478753146976607E-5
11.84,4.382590975275553E-5
11.844,4.433076115418607E-5
11.848,4.3609544866428155E-5
11.852,4.110932840220075E-5
11.856,3.7575368592187E-5
11.86,3.384908443877114E-5
11.864,3.243069240618059E-5
11.868,3.223836806277848E-5
11.872,3.110846254529109E-5
11.876,2.3391448266281476E-5
11.88,9.399852283778065E-6
11.884,8.02954133703804E-6
11.888,1.377523109617604E-5
11.892,2.9305421825896317E-5
11.896,3.745516587756068E-5
11.9,4.219115283383761E-5
11.904,4.553278830044925E-5
11.908,4.3609544866428155E-5
11.912,3.6613746875176454E-5
11.916,3.1276746345767933E-5
11.92,2.9666029969775275E-5
11.924,2.7310056763099444E-5
11.928,2.387225912478675E-5
11.932,1.8198690994424542E-5
11.936,1.3486744581072875E-5
11.94,9.592176627180174E-6
11.944,4.5436626128748196E-6
11.948,-2.355973206675832E-6
11.952,-3.4137570953874305E-6
11.956,1.2260676891884432E-6
11.96,-2.716581350554786E-6
11.964,-3.990730125593757E-6
11.968,1.230875797773496E-5
11.972,2.3655894238459377E-5
11.976,2.6949448619220486E-5
11.98,2.762258382112787E-5
11.984,2.841592173766157E-5
11.988,2.5723380930032046E-5
11.992,2.461751595546992E-5
11.996,2.3030840122402525E-5
12.0,2.255002926389725E-5
12.004,2.146820483226039E-5
12.008000000000001,2.00738533425951E-5
12.012,2.228558329171935E-5
12.016,2.2646191435598306E-5
12.02,2.081911017327827E-5
12.024000000000001,1.9569001941164567E-5
12.028,1.6563934075506616E-5
12.032,1.0409555086639136E-5
12.036,5.361041072333782E-6
12.040000000000001,1.0409555086639136E-5
12.044,1.824677208027507E-5
12.048,2.7742786535754187E-5
12.052,4.0364071571517574E-5
12.056000000000001,4.635016675990821E-5
12.06,4.957159951189352E-5
12.064,5.014857254209986E-5
12.068,4.4667328755139754E-5
12.072000000000001,3.906588225355334E-5
12.076,3.6229098188372236E-5
12.08,3.3873124981696405E-5
12.084,3.2839381635910064E-5
12.088000000000001,3.190180046182479E-5
12.092,3.1925841004750056E-5
12.096,3.065169222971109E-5
12.1,2.923330019712053E-5
12.104000000000001,2.8872692053241578E-5
12.108,2.8560164995213148E-5
12.112,2.6083989073911E-5
12.116,2.2309623834644613E-5
12.120000000000001,2.348761043798253E-5
12.124,2.0867191259128803E-5
12.128,1.8054447736872958E-5
12.132,2.4665597041320444E-5
12.136000000000001,3.0146840828280546E-5
12.14,3.8681233566749123E-5
12.144,4.5893396444328194E-5
12.148,4.7311788476918754E-5
12.152000000000001,4.341722052302605E-5
12.156,3.9138003882329134E-5
12.16,3.73109226200091E-5
12.164,3.505111158503432E-5
12.168000000000001,3.399332769632272E-5
12.172,3.0627651686785824E-5
12.176,2.6588840475341535E-5
12.18,2.3655894238459377E-5
12.184000000000001,2.1660529175662497E-5
12.188,2.2910637407776204E-5
12.192,2.4497313240843602E-5
12.196,2.101143451668038E-5
12.200000000000001,1.4616650098560264E-5
12.204,1.4159879782980259E-5
12.208,2.081911017327827E-5
12.212,2.682924590459417E-5
12.216000000000001,2.7862989250380504E-5
12.22,3.091613820188898E-5
12.224,3.3536557380742715E-5
12.228,3.4594341269454314E-5
12.232000000000001,3.642142253177435E-5
12.236,3.707051719075646E-5
12.24,3.6349300902998556E-5
12.244,2.8944813682017366E-5
12.248000000000001,2.1612448089811972E-5
12.252,3.0243002999981602E-5
12.256,4.375378812397974E-5
12.26,4.9908167112847226E-5
12.264000000000001,4.77445182495735E-5
12.268,4.130165274560285E-5
12.272,3.312786815101323E-5
12.276,3.707051719075646E-5
12.280000000000001,4.875422105243457E-5
12.284,5.29613160643557E-5
12.288,4.930715353971563E-5
12.292,4.425863952541028E-5
12.296,3.957073365498388E-5
12.3,3.815234162239332E-5
12.304,3.971497691253546E-5
12.308,4.062851754369548E-5
12.312,3.9811139084236514E-5
12.316,3.788789565021543E-5
12.32,3.5435760271838536E-5
12.324,2.9666029969775275E-5
12.328,2.6949448619220486E-5
12.332,3.6709909046877504E-5
12.336,4.769643716372297E-5
12.34,4.892250485291141E-5
12.344,5.36825323521136E-5
12.348,6.250541160568534E-5
12.352,6.969353394033917E-5
12.356,7.219375040456657E-5
12.36,7.041475022809707E-5
12.364,6.858766896577703E-5
12.368,6.750584453414017E-5
12.372,6.75539256199907E-5
12.376,6.531815512794119E-5
12.38,6.339491169392009E-5
12.384,6.236116834813377E-5
12.388,6.139954663112322E-5
12.392,6.192843857547903E-5
12.396,6.173611423207692E-5
12.4,5.9812870798055824E-5
12.404,5.793770844988526E-5
12.408,5.6375073159743124E-5
12.412,5.315364040775781E-5
12.416,5.0004329284548275E-5
12.42,5.199969434734516E-5
12.424,6.284197920663904E-5
12.428,7.267456126307184E-5
12.432,7.346789917960555E-5
12.436,6.78183715921686E-5
12.44,5.827427605083895E-5
12.444,4.743199119154507E-5
12.448,4.1133368945126004E-5
12.452,4.168630143240707E-5
12.456,4.7504112820320866E-5
12.46,5.180737000394304E-5
12.464,5.750497867723052E-5
12.468,6.363531712317274E-5
12.472,6.786645267801912E-5
12.476,6.974161502618968E-5
12.48,7.007818262714338E-5
12.484,7.053495294272339E-5
12.488,6.752988507706544E-5
12.492,5.726457324797788E-5
12.496,4.683097761841348E-5
12.5,5.3297883665309384E-5
12.504,6.765008779169175E-5
12.508000000000001,7.519881827022452E-5
12.512,7.57277102145803E-5
12.516,7.101576380122866E-5
12.52,7.04628313139476E-5
12.524000000000001,7.385254786640976E-5
12.528,7.854045373683617E-5
12.532,8.00309673982025E-5
12.536,7.95020754538467E-5
12.540000000000001,7.810772396418143E-5
12.544,7.702589953254456E-5
12.548,7.731438604764772E-5
12.552,7.97665214260246E-5
12.556000000000001,7.894914296656565E-5
12.56,7.327557483620344E-5
12.564,6.942908796816125E-5
12.568,6.837130407944966E-5
12.572000000000001,6.224096563350744E-5
12.576,5.382677560966519E-5
12.58,6.159187097452533E-5
12.584,7.536710207070136E-5
12.588000000000001,8.089642694351199E-5
12.592,8.325240015018783E-5
12.596,8.217057571855097E-5
12.6,7.846833210806037E-5
12.604000000000001,7.387658840933502E-5
12.608,7.111192597292971E-5
12.612,6.849150679407598E-5
12.616,6.666442553175595E-5
12.620000000000001,6.704907421856016E-5
12.624,6.510179024161382E-5
12.628,6.298622246419062E-5
12.632,5.9091654510297916E-5
12.636000000000001,4.7936842592975606E-5
12.64,4.1493977089004965E-5
12.644,5.7120329990426296E-5
12.648,6.825110136482335E-5
12.652000000000001,7.063111511442444E-5
12.656,7.358810189423186E-5
12.66,7.257839909137079E-5
12.664,7.344385863668028E-5
12.668000000000001,7.555942641410346E-5
12.672,7.695377790376876E-5
12.676,7.390062895226029E-5
12.68,7.060707457149919E-5
12.684000000000001,6.822706082189809E-5
12.688,6.541431729964223E-5
12.692,6.385168200950011E-5
12.696,6.344299277977062E-5
12.700000000000001,6.337087115099483E-5
12.704,6.313046572174219E-5
12.708,6.377956038072431E-5
12.712,6.370743875194853E-5
12.716000000000001,6.42603712392296E-5
12.72,6.500562806991276E-5
12.724,6.565472272889487E-5
12.728,6.752988507706544E-5
12.732000000000001,7.173698008898656E-5
12.736,7.423719655321399E-5
12.74,7.505457501267294E-5
12.744,7.59440751009077E-5
12.748000000000001,7.65450886740393E-5
12.752,7.721822387594666E-5
12.756,7.803560233540561E-5
12.76,7.604023727260874E-5
12.764000000000001,7.370830460885818E-5
12.768,7.522285881314978E-5
12.772,7.683357518914245E-5
12.776,7.709802116132035E-5
12.780000000000001,7.659316975988982E-5
12.784,7.539114261362662E-5
12.788,7.228991257626763E-5
12.792,7.168889900313604E-5
12.796000000000001,7.426123709613926E-5
12.8,7.503053446974768E-5
12.804,7.71941833330214E-5
12.808,7.887702133778986E-5
12.812,7.630468324478664E-5
12.816,7.183314226068762E-5
12.82,7.000606099836758E-5
12.824,6.779433104924332E-5
12.828,7.301112886402554E-5
12.832,8.16897648600457E-5
12.836,8.712292756115525E-5
12.84,9.221952266131114E-5
12.844,9.582560410010068E-5
12.848,9.510438781234279E-5
12.852,9.164254963110482E-5
12.856,8.712292756115525E-5
12.86,8.50554408695826E-5
12.864,8.469483272570363E-5
12.868,8.529584629883523E-5
12.872,8.447846783937626E-5
12.876,8.457463001107732E-5
12.88,8.541604901346155E-5
12.884,8.673827887435104E-5
12.888,8.628150855877105E-5
12.892,8.238694060487834E-5
12.896,7.923762948166882E-5
12.9,7.666529138866561E-5
12.904,8.190612974637307E-5
12.908,8.695464376067841E-5
12.912,8.981546836878479E-5
12.916,9.510438781234279E-5
12.92,9.71959150468407E-5
12.924,9.38302390373038E-5
12.928,9.202719831790904E-5
12.932,9.219548211838588E-5
12.936,9.06088062853185E-5
12.94,9.017607651266374E-5
12.944,9.046456302776691E-5
12.948,9.036840085606584E-5
12.952,8.870960339422267E-5
12.956,8.844515742204477E-5
12.96,8.717100864700578E-5
12.964,8.592090041489209E-5
12.968,8.14253188878678E-5
12.972,7.604023727260874E-5
12.976,8.039157554208147E-5
12.98,8.541604901346155E-5
12.984,8.873364393714793E-5
12.988,9.671510418833545E-5
12.992,1.0015290182664813E-4
12.996,9.837390165017862E-5
13.0,9.190699560328272E-5
13.004,8.794030602061422E-5
13.008000000000001,8.572857607148997E-5
13.012,8.399765698087101E-5
13.016,8.202633246099938E-5
13.02,8.135319725909201E-5
13.024000000000001,8.106471074398883E-5
13.028,8.012712956990355E-5
13.032,8.007904848405303E-5
13.036,8.149744051664358E-5
13.040000000000001,8.255522440535518E-5
13.044,8.089642694351199E-5
13.048,7.83240888505088E-5
13.052,8.10887512869141E-5
13.056000000000001,8.58487787861163E-5
13.06,9.032031977021531E-5
13.064,9.762864481949545E-5
13.068,1.027492804625766E-4
13.072000000000001,1.066438484164693E-4
13.076,1.1077882179961463E-4
13.08,1.1500995735446104E-4
13.084,1.1952957942441059E-4
13.088000000000001,1.233520257495275E-4
13.092,1.2688598555954123E-4
13.096,1.2678982338784018E-4
13.1,1.254675935269507E-4
13.104000000000001,1.2366455280755592E-4
13.108,1.2431364746653804E-4
13.112,1.2404920149436014E-4
13.116,1.2287121489102225E-4
13.120000000000001,1.2109221471455272E-4
13.124,1.1960170105318639E-4
13.128,1.1981806593951376E-4
13.132,1.2029887679801902E-4
13.136000000000001,1.1842371444984847E-4
13.14,1.1563501147051788E-4
13.144,1.118606462312515E-4
13.148,1.1162024080199887E-4
13.152000000000001,1.1835159282107267E-4
13.156,1.1955361996733586E-4
13.16,1.1347136260724417E-4
13.164,1.0116260462950921E-4
13.168000000000001,8.938273859613004E-5
13.172,8.897404936640055E-5
13.176,9.654682038785859E-5
13.18,1.0481676715414927E-4
13.184000000000001,1.1147599754444727E-4
13.188,1.1577925472806947E-4
13.192,1.2138070122965588E-4
13.196,1.271263909887939E-4
13.200000000000001,1.2796780999117812E-4
13.204,1.285688235643097E-4
13.208,1.28232255963356E-4
13.212,1.2813609379165497E-4
13.216000000000001,1.269100261024665E-4
13.22,1.241453636660612E-4
13.224,1.2239040403251697E-4
13.228,1.2347222846415383E-4
13.232000000000001,1.2532335026939912E-4
13.236,1.231597014061254E-4
13.24,1.2061140385604744E-4
13.244,1.207796876565243E-4
13.248000000000001,1.275110396755981E-4
13.252,1.3373754029324136E-4
13.256,1.3501168906828034E-4
13.26,1.3462704038147614E-4
13.264000000000001,1.3397794572249402E-4
13.268,1.3106904002853711E-4
13.272,1.3032378319785393E-4
13.276,1.3135752654364026E-4
13.280000000000001,1.2563587732742756E-4
13.284,1.2039503896972007E-4
13.288,1.261166881859328E-4
13.292,1.300833777686013E-4
13.296000000000001,1.298910534251992E-4
13.3,1.278476072765518E-4
13.304,1.25131025925997E-4
13.308,1.2654941795858755E-4
13.312000000000001,1.2931408039499286E-4
13.316,1.2979489125349814E-4
13.32,1.2832841813505705E-4
13.324,1.2515506646892228E-4
13.328,1.240732420372854E-4
13.332,1.2181343100231062E-4
13.336,1.2130857960088009E-4
13.34,1.2178939045938536E-4
13.344,1.2065948494189797E-4
13.348,1.1888048476542847E-4
13.352,1.1525036278371367E-4
13.356,1.1005760551185674E-4
13.36,1.0707657818912405E-4
13.364,1.0856709185049041E-4
13.368,1.0820648370661143E-4
13.372,1.010424019148829E-4
13.376,9.517650944111857E-5
13.38,1.006337126851534E-4
13.384,1.0719678090375036E-4
13.388,1.1082690288546516E-4
13.392,1.1164428134492413E-4
13.396,1.0988932171137988E-4
13.4,1.0597071321456193E-4
13.404,1.0371090217958713E-4
13.408,1.0476868606829874E-4
13.412,1.0659576733061877E-4
13.416,1.0573030778530929E-4
13.42,9.991249639739551E-5
13.424,9.214740103253536E-5
13.428,9.197911723205851E-5
13.432,9.724399613269123E-5
13.436,9.681126636003649E-5
13.44,9.5489036499147E-5
13.444,9.758056373364494E-5
13.448,9.842198273602915E-5
13.452,1.0551394289898192E-4
13.456,1.1027397039818411E-4
13.46,1.0957679465335146E-4
13.464,1.0532161855557981E-4
13.468,1.0092219920025657E-4
13.472,9.642661767323227E-5
13.476,9.05366846565427E-5
13.48,8.887788719469951E-5
13.484,8.99356710834111E-5
13.488,9.137810365892692E-5
13.492,9.101749551504797E-5
13.496,8.923849533857845E-5
13.5,8.072814314303515E-5
13.504,6.990989882666654E-5
13.508000000000001,7.027050697054548E-5
13.512,8.118491345861517E-5
13.516,9.092133334334691E-5
13.52,9.553711758499753E-5
13.524000000000001,9.541691487037122E-5
13.528,9.245992809056378E-5
13.532,8.361300829406678E-5
13.536,7.8251967221733E-5
13.540000000000001,8.411785969549732E-5
13.544,8.58487787861163E-5
13.548,8.666615724557526E-5
13.552,8.580069770026578E-5
13.556000000000001,8.034349445623092E-5
13.56,7.55353858711782E-5
13.564,7.736246713349825E-5
13.568,8.284371092045835E-5
13.572000000000001,8.628150855877105E-5
13.576,8.618534638706999E-5
13.58,8.171380540297095E-5
13.584,8.156956214541938E-5
13.588000000000001,8.644979235924789E-5
13.592,8.712292756115525E-5
13.596,8.524776521298471E-5
13.6,8.61132247582942E-5
13.604000000000001,8.986354945463532E-5
13.608,9.130598203015113E-5
13.612,8.92144547956532E-5
13.616,8.642575181632262E-5
13.620000000000001,8.392553535209521E-5
13.624,8.25311838624299E-5
13.628,8.096854857228778E-5
13.632,7.98386430548004E-5
13.636000000000001,7.880489970901405E-5
13.64,7.736246713349825E-5
13.644,7.522285881314978E-5
13.648,7.207354768994026E-5
13.652000000000001,7.195334497531393E-5
13.656,7.37563856947087E-5
13.66,7.652104813111401E-5
13.664,7.849237265098564E-5
13.668000000000001,7.830004830758353E-5
13.672,7.952611599677197E-5
13.676,8.087238640058673E-5
13.68,8.125703508739096E-5
13.684000000000001,8.007904848405303E-5
13.688,7.906934568119196E-5
13.692,7.560750749995399E-5
13.696,7.017434479884442E-5
13.700000000000001,6.774624996339281E-5
13.704,6.837130407944966E-5
13.708,6.740968236243911E-5
13.712,6.466906046895906E-5
13.716000000000001,6.192843857547903E-5
13.72,5.815407333621264E-5
13.724,5.1470802402989356E-5
13.728,4.550874775752398E-5
13.732000000000001,4.6710774903787166E-5
13.736,5.204777543319569E-5
13.74,5.577405958661154E-5
13.744,5.803387062158631E-5
13.748000000000001,5.885124908104529E-5
13.752,5.877912745226948E-5
13.756,5.680780293239788E-5
13.76,5.5004762213003106E-5
13.764000000000001,5.6158708273415754E-5
13.768,5.885124908104529E-5
13.772,6.353915495147169E-5
13.776,6.163995206037586E-5
13.780000000000001,5.750497867723052E-5
13.784,5.8875289623970546E-5
13.788,6.613553358740015E-5
13.792,7.010222317006863E-5
13.796000000000001,7.120808814463077E-5
13.8,6.998202045544232E-5
13.804,6.712119584733596E-5
13.808,6.481330372651065E-5
13.812000000000001,6.168803314622639E-5
13.816,5.76492219347821E-5
13.82,5.671164076069682E-5
13.824,5.767326247770736E-5
13.828,5.825023550791369E-5
13.832,5.6639519131921035E-5
13.836,5.187949163271883E-5
13.84,4.5196220699495563E-5
13.844,4.0123666142264934E-5
13.848,3.921012551110492E-5
13.852,4.409035572493344E-5
13.856,4.735986956276928E-5
13.86,5.190353217564409E-5
13.864,5.519708655640521E-5
13.868,5.377869452381466E-5
13.872,5.0629383400605134E-5
13.876,4.909078865338826E-5
13.88,4.219115283383761E-5
13.884,3.327211140856482E-5
13.888,2.827167848010999E-5
13.892,2.726197567724892E-5
13.896,3.0267043542906866E-5
13.9,3.692627393320488E-5
13.904,4.291236912159552E-5
13.908,4.661461273208611E-5
13.912,4.3104693464997624E-5
13.916,3.9138003882329134E-5
13.92,4.3849950295680796E-5
13.924,5.2576667377551476E-5
13.928,5.702416781872525E-5
13.932,5.974074916928003E-5
13.936,5.947630319710213E-5
13.94,5.675972184654735E-5
13.944,5.502880275592837E-5
13.948,5.358637018041255E-5
13.952,5.2528586291700955E-5
13.956,5.339404583701044E-5
13.96,5.344212692286096E-5
13.964,4.930715353971563E-5
13.968,4.257580152064183E-5
13.972,4.0604477000770215E-5
13.976,4.3393179980100786E-5
13.98,4.704734250474085E-5
13.984,4.683097761841348E-5
13.988,4.3489342151801835E-5
13.992,3.800809836484174E-5
13.996,3.4257773668500623E-5
14.0,3.4041408782173254E-5
14.004,3.267109783543322E-5
14.008000000000001,3.243069240618059E-5
14.012,3.457030072652905E-5
14.016,3.3752922267070085E-5
14.02,3.2526854577881645E-5
14.024000000000001,3.291150326468586E-5
14.028,3.6325260360073286E-5
14.032,3.848890922334702E-5
14.036,3.880143628137544E-5
14.040000000000001,3.7719611849738574E-5
14.044,3.603677384497013E-5
14.048,3.685415230442909E-5
14.052,3.8464868680421754E-5
14.056000000000001,3.9306287682805976E-5
14.06,3.303170597931218E-5
14.064,2.6781164818743645E-5
14.068,3.327211140856482E-5
14.072000000000001,3.62531387312975E-5
14.076,3.613293601667118E-5
14.08,3.8080219993617535E-5
14.084,3.91620444252544E-5
14.088000000000001,3.834466596579544E-5
14.092,3.591657113034381E-5
14.096,3.1228665259917405E-5
14.1,2.7502381106501553E-5
14.104000000000001,2.841592173766157E-5
14.108,3.086805711603846E-5
14.112,3.081997603018793E-5
14.116,2.9593908340999486E-5
14.120000000000001,2.755046219235208E-5
14.124,2.5963786359284687E-5
14.128,2.367993478138464E-5
14.132,2.1299921031783546E-5
14.136000000000001,2.093931288790459E-5
14.14,2.1949015690765662E-5
14.144,2.7358137848949972E-5
14.148,3.1685435575497416E-5
14.152000000000001,2.8944813682017366E-5
14.156,2.4809840298872032E-5
14.16,2.2934677950701465E-5
14.164,2.267023197852357E-5
14.168000000000001,2.3752056410160433E-5
14.172,2.4954083556423613E-5
14.176,2.2862556321925676E-5
14.18,1.8006366651022433E-5
14.184000000000001,1.4881096070738164E-5
14.188,1.2356839063585486E-5
14.192,1.1154811917322306E-5
14.196,1.6756258418908725E-5
14.200000000000001,2.2429826549270933E-5
14.204,2.134800211763407E-5
14.208,1.918435325436035E-5
14.212,2.081911017327827E-5
14.216000000000001,2.1540326461036183E-5
14.22,1.839101533782665E-5
14.224,1.8751623481705602E-5
14.228,2.0771029087427747E-5
14.232000000000001,2.072294800157722E-5
14.236,1.9641123569940356E-5
14.24,1.827081262320033E-5
14.244,1.8823745110481394E-5
14.248000000000001,1.8703542395855078E-5
14.252,1.6227366474552926E-5
14.256,1.3342501323521294E-5
14.26,1.0938447030994935E-5
14.264000000000001,9.856622599358076E-6
14.268,1.0289352372012817E-5
14.272,1.2284717434809696E-5
14.276,9.712379341806491E-6
14.280000000000001,8.462271109692785E-6
14.284,1.1154811917322306E-5
14.288,1.5746555616047655E-5
14.292,2.1828812976139345E-5
14.296000000000001,2.2333664377569877E-5
14.3,2.3175083379954106E-5
14.304,2.4665597041320444E-5
14.308,2.2574069806822514E-5
14.312000000000001,1.831889370905086E-5
14.316,1.4640690641485528E-5
14.32,1.257320394991286E-5
14.324,1.2332798520660222E-5
14.328000000000001,9.6402577130307E-6
14.332,5.7937708449885264E-6
14.336,-2.6444597217789954E-7
14.34,-6.010135731315898E-6
14.344,-3.966689582668494E-6
14.348,-2.307892120825305E-6
14.352,-4.423459898248502E-6
14.356,-7.019838534176969E-6
14.36,-5.745689759137999E-6
14.364,-5.240838357707464E-6
14.368,-4.8321491279779824E-6
14.372,-3.654162524640066E-6
14.376,2.6444597217789954E-7
14.38,3.822446325116912E-6
14.384,3.606081438789539E-6
14.388,7.933379165336986E-7
14.392,7.212162877579078E-8
14.396,1.177986603337916E-6
14.4,2.1155677774231963E-6
14.404,1.5145542042916065E-6
14.408,3.125270580284267E-7
14.412,-2.9329462368821585E-6
14.416,-7.140041248803287E-6
14.42,-8.438230566767521E-6
14.424,-7.69297373608435E-6
14.428,-5.0244734713800916E-6
14.432,-6.707311476148542E-6
14.436,-1.4448366298083419E-5
14.44,-1.7862123393470852E-5
14.444,-1.3342501323521294E-5
14.448,-1.0145109114461238E-5
14.452,-7.500649392682241E-6
14.456,-6.827514190774861E-6
14.46,-8.02954133703804E-6
14.464,-8.414190023842259E-6
14.468,-7.380446678055924E-6
14.472,-7.717014279009614E-6
14.476,-8.943081968198056E-6
14.48,-9.111365768674903E-6
14.484,-9.736419884731755E-6
14.488,-1.0529757801265454E-5
14.492,-7.356406135130661E-6
14.496,-2.380013749601096E-6
14.5,-2.211729949124251E-6
14.504,-3.125270580284267E-6
14.508000000000001,3.3656760095369028E-6
14.512,8.125703508739095E-6
14.516,9.520054998404384E-6
14.52,9.76046042765702E-6
14.524000000000001,7.476608849756978E-6
14.528,7.067919620027497E-6
14.532,6.202460074718008E-6
14.536,5.81781138791379E-6
14.540000000000001,4.928311299679038E-6
14.544,2.235770492049514E-6
14.548,-8.89500088234753E-7
14.552,-4.711946413351664E-6
14.556000000000001,-1.0433595629564401E-5
14.56,-1.5049379871215009E-5
14.564,-1.839101533782665E-5
14.568,-1.9232434340210877E-5
14.572000000000001,-1.7237069277413997E-5
14.576,-1.3582906752773933E-5
14.58,-1.0722082144667563E-5
14.584,-1.2356839063585486E-5
14.588000000000001,-1.3799271639101303E-5
14.592,-1.1924109290930743E-5
14.596,-1.2693406664539178E-5
14.6,-1.3198258065969715E-5
14.604000000000001,-1.6828380047684518E-5
14.608,-2.247790763512146E-5
14.612,-2.7526421649426817E-5
14.616,-3.081997603018793E-5
14.620000000000001,-3.0459367886308972E-5
14.624,-2.8199556851334194E-5
14.628,-2.1444164289335127E-5
14.632,-1.4015636525428674E-5
14.636000000000001,-9.255609026226483E-6
14.64,-6.8996358195506515E-6
14.644,-8.173784594589622E-6
14.648,-1.1996230919706534E-5
14.652000000000001,-1.5169582585841328E-5
14.656,-1.7020704391086627E-5
14.66,-1.5217663671691854E-5
14.664,-8.943081968198056E-6
14.668000000000001,-4.255176097771657E-6
14.672,-3.2935543807611127E-6
14.676,-3.8945679538927025E-6
14.68,-4.255176097771657E-6
14.684000000000001,-5.457203244034836E-6
14.688,-7.668933193159086E-6
14.692,-1.2765528293314967E-5
14.696,-1.8006366651022433E-5
14.700000000000001,-1.9617083027015092E-5
14.704,-2.105951560253091E-5
14.708,-2.247790763512146E-5
14.712,-2.454539432669413E-5
14.716000000000001,-2.4737718670096236E-5
14.72,-2.5170448442750983E-5
14.724,-2.514640789982572E-5
14.728,-2.098739397375512E-5
14.732000000000001,-1.572251507312239E-5
14.736,-1.351078512399814E-5
14.74,-1.2404920149436016E-5
14.744,-1.1491379518275998E-5
14.748000000000001,-1.0914406488069673E-5
14.752,-1.1250974089023363E-5
14.756,-1.110673083147178E-5
14.76,-1.2477041778211806E-5
14.764000000000001,-1.363098783862446E-5
14.768,-1.5001298785364483E-5
14.772,-1.6371609732104507E-5
14.776,-1.56503934443466E-5
14.780000000000001,-1.7237069277413997E-5
14.784,-2.072294800157722E-5
14.788,-1.9617083027015092E-5
14.792,-1.6371609732104507E-5
14.796000000000001,-1.2813609379165497E-5
14.8,-1.2933812093791812E-5
14.804,-1.5698474530197127E-5
14.808,-2.151628591811092E-5
14.812000000000001,-2.3295286094580423E-5
14.816,-2.1179718317157226E-5
14.82,-1.6563934075506616E-5
14.824,-9.712379341806491E-6
14.828000000000001,-6.394784418120116E-6
14.832,-6.346703332269589E-6
14.836,-7.500649392682241E-6
14.84,-8.798838710646477E-6
14.844000000000001,-9.712379341806491E-6
14.848,-1.3270379694745504E-5
14.852,-1.5962920502375028E-5
14.856,-1.391947435372762E-5
14.86,-1.3366541866446558E-5
14.864,-1.663605570428241E-5
14.868,-2.1179718317157226E-5
14.872,-2.098739397375512E-5
14.876,-1.629948810332872E-5
14.88,-9.592176627180174E-6
14.884,-3.4618381812379573E-6
14.888,4.5677031558000826E-7
14.892,8.89500088234753E-7
14.896,7.452568306831714E-7
14.9,3.918608496817966E-6
14.904,6.514987132746435E-6
14.908,5.4812437869600995E-6
14.912,2.908905693956895E-6
14.916,-3.1733516661347945E-6
14.92,-1.204431200555706E-5
14.924,-1.846313696660244E-5
14.928,-2.4497313240843602E-5
14.932,-2.4256907811590965E-5
14.936,-2.3030840122402525E-5
14.94,-2.2021137319541454E-5
14.944,-2.0674866915726694E-5
14.948,-2.1492245375185655E-5
14.952,-1.6660096247207673E-5
14.956,-8.29398730921594E-6
14.96,-5.457203244034836E-6
14.964,-6.75539256199907E-6
14.968,-1.0746122687592827E-5
14.972,-1.5554231272645546E-5
14.976,-1.9809407370417204E-5
14.98,-2.2766394150224623E-5
14.984,-2.507428627104993E-5
14.988,-2.58195431017331E-5
14.992,-2.5579137672480465E-5
14.996,-2.5867624187583624E-5
15.0,-2.704561079092154E-5
15.004,-2.911309748249421E-5
15.008000000000001,-2.99785570278037E-5
15.012,-2.9449665083447905E-5
15.016,-2.9305421825896317E-5
15.02,-3.163735448964689E-5
15.024000000000001,-3.428181421142589E-5
15.028,-3.4762625069931155E-5
15.032,-3.166139503257215E-5
15.036,-2.8055313593782613E-5
15.040000000000001,-2.721389459139839E-5
15.044,-2.642055667486469E-5
15.048,-2.577146201588257E-5
15.052,-2.9065016396643687E-5
15.056000000000001,-2.762258382112787E-5
15.06,-2.4232867268665704E-5
15.064,-2.2598110349747782E-5
15.068,-1.8775664024630866E-5
15.072000000000001,-2.0771029087427747E-5
15.076,-2.5218529528601514E-5
15.08,-2.507428627104993E-5
15.084,-2.348761043798253E-5
15.088000000000001,-1.815060990857401E-5
15.092,-1.3126136437193923E-5
15.096,-1.0746122687592827E-5
15.1,-1.144329843242547E-5
15.104000000000001,-1.4280082497606574E-5
15.108,-1.5289785300467648E-5
15.112,-1.3823312182026567E-5
15.116,-1.2236636348959169E-5
15.120000000000001,-1.4712812270261322E-5
15.124,-1.726110982033926E-5
15.128,-1.4808974441962375E-5
15.132,-7.236203420504342E-6
15.136000000000001,-2.7887029793305766E-6
15.14,-2.908905693956895E-6
15.144,-3.4858787241632214E-6
15.148,-4.711946413351664E-6
15.152000000000001,-8.390149480916995E-6
15.156,-1.4087758154204465E-5
15.16,-1.8102528822723486E-5
15.164,-1.9088191082659292E-5
15.168000000000001,-2.002577225674457E-5
15.172,-1.9112231625584556E-5
15.176,-1.7164947648638204E-5
15.18,-1.658797461843188E-5
15.184000000000001,-2.0915272344979328E-5
15.188,-2.6083989073911E-5
15.192,-2.5579137672480465E-5
15.196,-2.1275880488858282E-5
15.200000000000001,-1.7814042307620324E-5
15.204,-1.7092826019862416E-5
15.208,-1.6131204302851873E-5
15.212,-1.704474493401189E-5
15.216000000000001,-1.5770596158972916E-5
15.22,-1.024127128616229E-5
15.224,-7.95741970826225E-6
15.228,-1.0481676715414928E-5
15.232000000000001,-1.4736852813186585E-5
15.236,-1.605908267407608E-5
15.24,-1.625140701747819E-5
15.244,-1.543402855801923E-5
15.248000000000001,-1.2597244492838125E-5
15.252,-1.3150176980119185E-5
15.256,-1.557827181557081E-5
15.26,-1.764575850714348E-5
15.264000000000001,-2.000173171381931E-5
15.268,-2.2069218405391982E-5
15.272,-2.5290651157377303E-5
15.276,-2.1251839945933018E-5
15.280000000000001,-8.510352195543313E-6
15.284,-2.0915272344979327E-6
15.288,-2.355973206675832E-6
15.292,-5.096595100155882E-6
15.296000000000001,-8.678635996020157E-6
15.3,-1.1563501147051789E-5
15.304,-1.0794203773443354E-5
15.308,-1.144329843242547E-5
15.312000000000001,-1.3294420237670768E-5
15.316,-1.605908267407608E-5
15.32,-2.2574069806822514E-5
15.324,-3.291150326468586E-5
15.328000000000001,-4.548470721459872E-5
15.332,-5.144676186006409E-5
15.336,-4.6254004588207155E-5
15.34,-4.264792314941761E-5
15.344000000000001,-4.055639591491968E-5
15.348,-3.2070084262301634E-5
15.352,-2.3295286094580423E-5
15.356,-2.1083556145456173E-5
15.36,-1.906415053973403E-5
15.364,-1.4592609555635002E-5
15.368,-1.2885731007941285E-5
15.372,-1.3703109467400248E-5
15.376,-1.6131204302851873E-5
15.38,-1.7958285565171905E-5
15.384,-1.8342934251976123E-5
15.388,-1.6131204302851873E-5
15.392,-1.4328163583457104E-5
15.396,-1.5289785300467648E-5
15.4,-1.678029896183399E-5
15.404,-1.7886163936396113E-5
15.408,-1.952092085531404E-5
15.412,-2.1973056233690923E-5
15.416,-2.175669134736355E-5
15.42,-1.678029896183399E-5
15.424,-1.144329843242547E-5
15.428,-8.534392738468576E-6
15.432,-1.0914406488069673E-5
15.436,-1.7717880135919268E-5
15.44,-2.0963353430829856E-5
15.444,-1.598696104530029E-5
15.448,-8.36610893799173E-6
15.452,-1.0337433457863345E-6
15.456,9.375811740852802E-7
15.46,-2.307892120825305E-6
15.464,-6.15437898886748E-6
15.468,-8.342068395066467E-6
15.472,-9.712379341806491E-6
15.476,-1.0481676715414928E-5
15.48,-1.0121068571535972E-5
15.484,-1.0866325402219144E-5
15.488,-1.5506150186795018E-5
15.492,-1.673221787598346E-5
15.496,-1.3366541866446558E-5
15.5,-9.135406311600166E-6
15.504,-6.442865503970643E-6
15.508000000000001,-2.8127435222558407E-6
15.512,-2.067486691572669E-6
15.516,-3.101230037359004E-6
15.52,-4.928311299679038E-6
15.524000000000001,-6.370743875194852E-6
15.528,-6.346703332269589E-6
15.532,-5.168716728931673E-6
15.536,-5.889933016689581E-6
15.540000000000001,-7.0438790771022325E-6
15.544,-7.933379165336988E-6
15.548,-1.2765528293314967E-5
15.552,-2.2622150892673046E-5
15.556000000000001,-2.281447523607515E-5
15.56,-1.6900501676460306E-5
15.564,-1.2765528293314967E-5
15.568,-9.784500970582283E-6
15.572000000000001,-5.673568130362209E-6
15.576,-1.3222298608894976E-6
15.58,6.010135731315899E-7
15.584,-3.1733516661347945E-6
15.588000000000001,-5.9620546454653715E-6
15.592,-3.918608496817966E-6
15.596,-3.2214327519853213E-6
15.6,-5.433162701109572E-6
15.604000000000001,-7.236203420504342E-6
15.608,-7.981460251187514E-6
15.612,-9.880663142283338E-6
15.616,-1.2525122864062333E-5
15.620000000000001,-1.391947435372762E-5
15.624,-1.8174650451499278E-5
15.628,-2.1251839945933018E-5
15.632,-1.9617083027015092E-5
15.636000000000001,-1.7573636878367687E-5
15.64,-1.4953217699513956E-5
15.644,-1.2284717434809696E-5
15.648,-1.1323095717799153E-5
15.652000000000001,-1.257320394991286E-5
15.656,-1.572251507312239E-5
15.66,-1.8559299138303497E-5
15.664,-1.824677208027507E-5
15.668000000000001,-1.658797461843188E-5
15.672,-1.678029896183399E-5
15.676,-1.4808974441962375E-5
15.68,-1.084228485929388E-5
15.684000000000001,-1.06980416017423E-5
15.688,-1.3342501323521294E-5
15.692,-1.678029896183399E-5
15.696,-1.952092085531404E-5
15.700000000000001,-1.56503934443466E-5
15.704,-1.2669366121613914E-5
15.708,-9.976825313984391E-6
15.712,-4.952351842604301E-6
15.716000000000001,-2.668500264704259E-6
15.72,-4.784068042127456E-6
15.724,-9.592176627180174E-6
15.728,-1.204431200555706E-5
15.732000000000001,-1.2356839063585486E-5
15.736,-1.4881096070738164E-5
15.74,-1.3655028381549722E-5
15.744,-9.664298255955965E-6
15.748000000000001,-1.0072987485685446E-5
15.752,-1.4688771727336055E-5
15.756,-1.718898819156347E-5
15.76,-1.579463670189818E-5
15.764000000000001,-1.2284717434809696E-5
15.768,-1.0385514543713873E-5
15.772,-8.606514367244368E-6
15.776,-1.1683703861678107E-5
15.780000000000001,-1.543402855801923E-5
15.784,-1.3366541866446558E-5
15.788,-9.544095541329646E-6
15.792,-7.260243963429606E-6
15.796000000000001,-6.611149304447489E-6
15.8,-4.110932840220075E-6
15.804,-1.9232434340210876E-6
15.808,-1.5145542042916065E-6
15.812000000000001,-2.956986779807422E-6
15.816,-6.2986222464190625E-6
15.82,-8.269946766290676E-6
15.824,-9.592176627180174E-6
15.828000000000001,-1.1323095717799153E-5
15.832,-1.4953217699513956E-5
15.836,-1.779000176469506E-5
15.84,-1.7140907105712944E-5
15.844000000000001,-1.9232434340210877E-5
15.848,-2.394438075356254E-5
15.852,-2.4136705096964648E-5
15.856,-1.9136272168509824E-5
15.860000000000001,-1.9016069453883504E-5
15.864,-2.4064583468188856E-5
15.868,-2.4737718670096236E-5
15.872,-2.3535691523833057E-5
15.876,-2.4160745639889912E-5
15.88,-2.2237502205868824E-5
15.884,-1.9448799226538247E-5
15.888,-1.704474493401189E-5
15.892,-1.8775664024630866E-5
15.896,-2.1251839945933018E-5
15.9,-2.012193442844563E-5
15.904,-1.7765961221769796E-5
15.908,-1.7597677421292954E-5
15.912,-1.985748845626773E-5
15.916,-2.1900934604915134E-5
15.92,-2.4064583468188856E-5
15.924,-2.274235360729936E-5
15.928,-1.9833447913342465E-5
15.932,-2.012193442844563E-5
15.936,-2.5290651157377303E-5
15.94,-2.7742786535754187E-5
15.944,-2.432902944036676E-5
15.948,-2.1660529175662497E-5
15.952,-1.865546131000455E-5
15.956,-1.5217663671691854E-5
15.96,-1.4688771727336055E-5
15.964,-1.663605570428241E-5
15.968,-1.5361906929243437E-5
15.972,-1.5409988015093965E-5
15.976,-1.4087758154204465E-5
15.98,-1.1948149833856007E-5
15.984,-1.2020271462631796E-5
15.988,-1.0962487573920199E-5
15.992,-9.688338798881227E-6
15.996,-1.2284717434809696E-5
16.0,-1.7597677421292954E-5
16.004,-1.940071814068772E-5
16.008,-1.6035042131150817E-5
16.012,-1.3270379694745504E-5
16.016000000000002,-1.3198258065969715E-5
16.02,-1.7717880135919268E-5
16.024,-2.478579975594676E-5
16.028,-3.1469070689170046E-5
16.032,-4.1493977089004965E-5
16.036,-4.8489775080256666E-5
16.04,-4.274408532111867E-5
16.044,-3.170947611842268E-5
16.048000000000002,-2.3968421296487803E-5
16.052,-1.7597677421292954E-5
16.056,-1.163562277582758E-5
16.06,-1.0770163230518092E-5
16.064,-1.5409988015093965E-5
16.068,-1.824677208027507E-5
16.072,-2.0602745286950898E-5
16.076,-2.1420123746409863E-5
16.080000000000002,-2.0674866915726694E-5
16.084,-2.1420123746409863E-5
16.088,-2.0746988544502482E-5
16.092,-1.8294853166125595E-5
16.096,-1.7285150363264525E-5
16.1,-1.59148394165245E-5
16.104,-1.3150176980119185E-5
16.108,-1.2068352548482324E-5
16.112000000000002,-1.3558866209848669E-5
16.116,-1.5554231272645546E-5
16.12,-1.7092826019862416E-5
16.124,-2.0097893885520366E-5
16.128,-2.1924975147840398E-5
16.132,-2.360781315260885E-5
16.136,-2.605994853098574E-5
16.14,-2.9545827255148958E-5
16.144000000000002,-3.442605746897747E-5
16.148,-3.755132804926173E-5
16.152,-3.675799013272804E-5
16.156,-3.0411286800458444E-5
16.16,-2.4136705096964648E-5
16.164,-2.1973056233690923E-5
16.168,-1.9208393797285613E-5
16.172,-1.7285150363264525E-5
16.176000000000002,-1.8342934251976123E-5
16.18,-1.8823745110481394E-5
16.184,-1.952092085531404E-5
16.188,-2.2261542748794088E-5
16.192,-2.307892120825305E-5
16.196,-2.387225912478675E-5
