0.0,0.0733480570731231
0.004,0.07336558262891563
0.008,0.0733774586571207
0.012,0.07339171469907538
0.016,0.07341046632255709
0.02,0.07342097203981543
0.024,0.073429794919069
0.028,0.0734376080955197
0.032,0.07343825719017869
0.036000000000000004,0.07344611844771526
0.04,0.07346131207084401
0.044,0.07345275363756262
0.048,0.07344703198834641
0.052000000000000005,0.07345164777258806
0.056,0.07345727325963257
0.06,0.07347056767987024
0.064,0.07349681995274464
0.068,0.07352369727973508
0.07200000000000001,0.07354319416004747
0.076,0.0735650229730236
0.08,0.07358687582654266
0.084,0.07361014707209432
0.088,0.07363368276361816
0.092,0.07366012736083595
0.096,0.07368460063353387
0.1,0.07370457832470477
0.10400000000000001,0.0737165985961674
0.108,0.07373205666526834
0.112,0.07373436455738917
0.116,0.07373736962525483
0.12,0.07374963030214671
0.124,0.07375588084330728
0.128,0.07374446158541778
0.132,0.07375984753288994
0.136,0.0737716033583804
0.14,0.07375912631660218
0.14400000000000002,0.07375903015443049
0.148,0.07375871762737246
0.152,0.07378194079183827
0.156,0.07381465997075955
0.16,0.07383872455422773
0.164,0.07387262171975235
0.168,0.07390572554736044
0.17200000000000001,0.07393707441533498
0.176,0.07395169106543355
0.18,0.07396387962069666
0.184,0.07397775101396453
0.188,0.07398005890608536
0.192,0.07396128324206072
0.196,0.0739446952674423
0.2,0.07397823182482303
0.20400000000000001,0.07399280039383575
0.20800000000000002,0.07399813739436516
0.212,0.07400823442239376
0.216,0.07404107380402968
0.22,0.07406610000921487
0.224,0.07408961166019579
0.228,0.07411293098683329
0.232,0.0741298795695956
0.23600000000000002,0.07414495299000974
0.24,0.07416875312750575
0.244,0.07419219265685788
0.248,0.07421106448305421
0.252,0.07422815730907407
0.256,0.07423296541765913
0.26,0.07425135643299695
0.264,0.07427849820595958
0.268,0.07430261087051361
0.272,0.07432347806177274
0.276,0.07434251817176955
0.28,0.07435001882116224
0.28400000000000003,0.07436143807905174
0.28800000000000003,0.07440975957033151
0.292,0.07442288570676871
0.296,0.07443692538383706
0.3,0.07444481068191657
0.304,0.07444812827684025
0.308,0.07445425861528619
0.312,0.07446570191371861
0.316,0.07448495838860175
0.32,0.07451060964790301
0.324,0.07452493781148646
0.328,0.07452157213547693
0.332,0.07457080716738787
0.336,0.07460929607661121
0.34,0.0746351637007988
0.34400000000000003,0.07465454037839656
0.34800000000000003,0.07467240250179003
0.352,0.07469002421975425
0.356,0.07470877584323596
0.36,0.07471779104683293
0.364,0.07473053253458331
0.368,0.0747471685902876
0.372,0.07475356337470572
0.376,0.07476950225466517
0.38,0.07478705185100061
0.384,0.07480712570434321
0.388,0.07483198362572793
0.392,0.07483967659946401
0.396,0.07484465299184954
0.4,0.07484575885682411
0.404,0.0748561203308249
0.40800000000000003,0.07487532872462217
0.41200000000000003,0.07488444009039086
0.41600000000000004,0.07489218114521279
0.42,0.074904658186991
0.424,0.07492134232378113
0.428,0.07493720908211181
0.432,0.07495632131373739
0.436,0.07498180428923817
0.44,0.0750093307108876
0.444,0.07501889884697185
0.448,0.07502250492841064
0.452,0.07503022194268964
0.456,0.07505551259384703
0.46,0.07507448058221505
0.464,0.07509998759825877
0.468,0.07512186449232075
0.47200000000000003,0.07513955833191374
0.47600000000000003,0.07516951284839862
0.48,0.07519711139167683
0.484,0.0752180266640218
0.488,0.07523973527428332
0.492,0.07525514526229841
0.496,0.07526488168218315
0.5,0.07527733468341843
0.504,0.07529577377984212
0.508,0.07529584590147088
0.512,0.0753307768103413
0.516,0.0753496245959947
0.52,0.07535731756973078
0.524,0.0753610438538842
0.528,0.07536957824662267
0.532,0.07537979547736591
0.536,0.07539188787045732
0.54,0.07539873942519101
0.544,0.07540518229069498
0.548,0.07542152985988416
0.552,0.07543768510472994
0.556,0.07547177459459797
0.56,0.07549201673174104
0.5640000000000001,0.07550538327360748
0.5680000000000001,0.07552394257274579
0.5720000000000001,0.07555644538678075
0.5760000000000001,0.07558875587647229
0.58,0.0756031321211416
0.584,0.07560354081037134
0.588,0.07561113762193572
0.592,0.0756237829475144
0.596,0.07562760539383952
0.6,0.07565054007179023
0.604,0.0756667914788077
0.608,0.07566698380315111
0.612,0.075676023047291
0.616,0.07568890877829894
0.62,0.07570479957717255
0.624,0.07572518595757316
0.628,0.075747110932721
0.632,0.07579112916681717
0.636,0.07589734028546098
0.64,0.07596544714356825
0.644,0.07597631346897046
0.648,0.07601946624352134
0.652,0.07603403481253404
0.656,0.07604581467856741
0.66,0.07607055239723752
0.664,0.07610187722466913
0.668,0.07616726750142586
0.672,0.07629547571684628
0.676,0.07650042134528415
0.68,0.07657667794744308
0.684,0.07658533254289618
0.6880000000000001,0.07659074166505436
0.6920000000000001,0.07659932413887868
0.6960000000000001,0.07658922711085007
0.7000000000000001,0.07657292762274674
0.704,0.07656362393263466
0.708,0.07656487404086677
0.712,0.07656857628447727
0.716,0.076579923420738
0.72,0.0765872557863302
0.724,0.07659112631374117
0.728,0.07659898757127773
0.732,0.07657405752826422
0.736,0.07657905796119269
0.74,0.07659194369220063
0.744,0.07660155990937073
0.748,0.07660526215298122
0.752,0.07661055107242477
0.756,0.07660569488275387
0.76,0.07659466027355118
0.764,0.07658655861058536
0.768,0.07658309677240413
0.772,0.07658910690813545
0.776,0.07659699220621494
0.78,0.07660600740981191
0.784,0.07660526215298122
0.788,0.07661386866734847
0.792,0.07662939885807818
0.796,0.07663086533119663
0.8,0.07663656293986991
0.804,0.07663863042656148
0.808,0.07662358104669027
0.812,0.07662031153285244
0.8160000000000001,0.07662141739782699
0.8200000000000001,0.07662956714187866
0.8240000000000001,0.0766421643863715
0.8280000000000001,0.07665437698217753
0.8320000000000001,0.07665791094198755
0.836,0.07671137710945333
0.84,0.0769415412674198
0.844,0.07705376252179494
0.848,0.07707059090184262
0.852,0.07707753861874801
0.856,0.07707708184843244
0.86,0.07707520668608427
0.864,0.07706292196864946
0.868,0.07703020278972818
0.872,0.07704255962879177
0.876,0.07705003623764152
0.88,0.07705626273825916
0.884,0.07704902653483865
0.888,0.07703433776311132
0.892,0.07703409735768206
0.896,0.07702282234305012
0.9,0.07700736427394918
0.904,0.07700200323287684
0.908,0.0769831314066805
0.912,0.07697219295964951
0.916,0.07699125711018925
0.92,0.07701149924733232
0.924,0.07703849677703739
0.928,0.07706530198239905
0.932,0.07706664825280288
0.936,0.0770671531042043
0.9400000000000001,0.07707489415902624
0.9440000000000001,0.07707787518634897
0.9480000000000001,0.07705770517083467
0.9520000000000001,0.07705861871146584
0.9560000000000001,0.07705775325192052
0.96,0.07705895527906678
0.964,0.07705133442695948
0.968,0.07705135846750241
0.972,0.0770682830097218
0.976,0.07707645679431638
0.98,0.07709739610720429
0.984,0.07714160666564385
0.988,0.07719500071148086
0.992,0.07728219576067079
0.996,0.07742535719379072
1.0,0.07747276514443935
1.004,0.07746548085993299
1.008,0.07753046244745998
1.012,0.07762530238930015
1.016,0.07762135974026041
1.02,0.07758724620984944
1.024,0.07756152282891941
1.028,0.07753252993415155
1.032,0.07751382639175569
1.036,0.07750596513421913
1.04,0.07749303132212534
1.044,0.07747242857683839
1.048,0.07746338933269849
1.052,0.07746983219820246
1.056,0.07746036022428991
1.06,0.07744915733128674
1.064,0.07744021424931855
1.068,0.07742646305876529
1.072,0.0774193470580594
1.076,0.07742083757172077
1.08,0.07742016443651886
1.084,0.07740975488143223
1.088,0.0773958354070785
1.092,0.07736102470092272
1.096,0.07735571174093624
1.1,0.07736407784987423
1.104,0.07738133895969457
1.108,0.07738867132528678
1.112,0.0773752807428774
1.116,0.07735804367359998
1.12,0.07734866786185914
1.124,0.07734573491562226
1.1280000000000001,0.07734470117227647
1.1320000000000001,0.07733897952306025
1.1360000000000001,0.07733729668505548
1.1400000000000001,0.07733804194188618
1.1440000000000001,0.07731621312891003
1.1480000000000001,0.07730039445166521
1.1520000000000001,0.07729847120823119
1.156,0.07729183601838381
1.16,0.07728597012591006
1.164,0.07728717215305632
1.168,0.07728188323361275
1.172,0.07727325267870258
1.176,0.07728200343632738
1.18,0.0772831573823878
1.184,0.07729522573493627
1.188,0.07730445730341957
1.192,0.0773051544791644
1.196,0.07731253492584246
1.2,0.07731986729143467
1.204,0.0773258053055372
1.208,0.07732510812979237
1.212,0.0773331136305865
1.216,0.07734402803707456
1.22,0.07733753709048474
1.224,0.07731580443968031
1.228,0.07728719619359924
1.232,0.07730522660079318
1.236,0.07730481791156346
1.24,0.07730003384352133
1.244,0.07731816041288697
1.248,0.07732719965702688
1.252,0.07733203180615486
1.256,0.07733688799582576
1.26,0.07733724860396964
1.264,0.07734078256377964
1.268,0.07734251348287027
1.272,0.07733683991473991
1.276,0.07734614360485198
1.28,0.07735835620065802
1.284,0.07735710609242591
1.288,0.07735398082184562
1.292,0.07736025540354911
1.296,0.0773621546064402
1.3,0.07735386061913099
1.304,0.07735905337640285
1.308,0.07736975141800459
1.312,0.077368333025972
1.316,0.07736390956607375
1.32,0.07737205931012542
1.324,0.07735304324067153
1.328,0.07734323469915802
1.332,0.07735179313243942
1.336,0.07735066322692194
1.34,0.07734893230783131
1.344,0.07735698588971128
1.348,0.07736621745819458
1.352,0.07737511245907693
1.356,0.07738328624367151
1.36,0.07737655489165245
1.364,0.07737362194541555
1.368,0.07740872113808644
1.372,0.0774108607464068
1.3760000000000001,0.07740751911094018
1.3800000000000001,0.0774100193274044
1.3840000000000001,0.07742223192321045
1.3880000000000001,0.07743329057295606
1.3920000000000001,0.07743485320824621
1.3960000000000001,0.07742338586927086
1.4000000000000001,0.07740946639491712
1.4040000000000001,0.07739908088037341
1.408,0.07739004163623352
1.412,0.07739691723151014
1.416,0.07741513996304748
1.42,0.07743523785693301
1.424,0.07744975834485987
1.428,0.0774482678311985
1.432,0.0774437001280427
1.436,0.07743052591051966
1.44,0.07741050013826291
1.444,0.07739691723151014
1.448,0.07739124366337978
1.452,0.07738706060891078
1.456,0.07742136646366513
1.46,0.07743586291104906
1.464,0.07746942350897273
1.468,0.0775021186473511
1.472,0.07750817686416826
1.476,0.07750863363448383
1.48,0.07750644594507763
1.484,0.07750055601206095
1.488,0.07750120510671993
1.492,0.07750156571486382
1.496,0.07749134848412058
1.5,0.07749771922799577
1.504,0.07749543537641787
1.508,0.07749351213298385
1.512,0.07748980988937336
1.516,0.07748372763201326
1.52,0.07749399294384235
1.524,0.07749658932247828
1.528,0.07750796049928194
1.532,0.07753851602933994
1.536,0.07755346924703946
1.54,0.07754967084125726
1.544,0.07755625795001879
1.548,0.07757116308663245
1.552,0.07757089864066027
1.556,0.0775715958164051
1.56,0.07758763085853625
1.564,0.0775831112364663
1.568,0.07757202854617776
1.572,0.07756698003216345
1.576,0.07757027358654421
1.58,0.07757779827647981
1.584,0.07757866373602514
1.588,0.07758356800678189
1.592,0.07761628718570318
1.596,0.07764225097206247
1.6,0.07769213509863239
1.604,0.07777134868757113
1.608,0.07783056054479605
1.612,0.07784327799200352
1.616,0.07788604611786756
1.62,0.07789590274046693
1.624,0.07788575763135246
1.6280000000000001,0.07787152562994071
1.6320000000000001,0.07786486639955041
1.6360000000000001,0.07787859354956073
1.6400000000000001,0.07787157371102656
1.6440000000000001,0.07784931216827776
1.6480000000000001,0.07782207423314344
1.6520000000000001,0.07779522094669591
1.6560000000000001,0.0777729353634042
1.6600000000000001,0.07776858402513473
1.6640000000000001,0.07778122935071341
1.668,0.07779752883881674
1.672,0.07780644788024202
1.676,0.07779950016333662
1.68,0.07778507583758146
1.684,0.07777086787671263
1.688,0.07777233434983107
1.692,0.07776221328125953
1.696,0.07773973537362441
1.7,0.07772415710180884
1.704,0.07770718447850361
1.708,0.07769953958585336
1.712,0.07770134262657276
1.716,0.07769862604522221
1.72,0.07768968296325401
1.724,0.07770718447850361
1.728,0.07773483110286766
1.732,0.07774653884727226
1.736,0.07774846209070628
1.74,0.07774721198247417
1.744,0.07774887077993602
1.748,0.07773968729253856
1.752,0.07772579185872776
1.756,0.07771240127631839
1.76,0.07770629497841537
1.764,0.07769492380161172
1.768,0.0776910051931149
1.772,0.07769016377411252
1.776,0.07768742315221903
1.78,0.07770127050494399
1.784,0.07770588628918564
1.788,0.0777088913570513
1.792,0.07772382053420789
1.796,0.07773992769796781
1.8,0.07774447136058069
1.804,0.07773398968386527
1.808,0.07772552741275558
1.812,0.07770218404557515
1.816,0.07772639287230089
1.82,0.07774112972511407
1.824,0.07773983153579611
1.828,0.07772968642668165
1.832,0.07772867672387879
1.836,0.0777254552911268
1.84,0.07772237810163236
1.844,0.07772947006179533
1.848,0.07774024022502585
1.852,0.07774057679262679
1.856,0.07772821995356322
1.86,0.07771956535811012
1.864,0.07772064718254175
1.868,0.07772571973709898
1.872,0.07772324356117769
1.8760000000000001,0.07772651307501552
1.8800000000000001,0.07772446962886687
1.8840000000000001,0.07771180026274525
1.8880000000000001,0.077714132195409
1.8920000000000001,0.07771829120933507
1.8960000000000001,0.07771297824934859
1.9000000000000001,0.07770083777517134
1.9040000000000001,0.07769504400432635
1.9080000000000001,0.07768742315221903
1.9120000000000001,0.07770357839706482
1.9160000000000001,0.07770992510039708
1.92,0.07771540634418404
1.924,0.07770978085713953
1.928,0.07770800185696307
1.932,0.07771699302001711
1.936,0.07771485341169676
1.94,0.07770497274855448
1.944,0.0776846344492397
1.948,0.0776753067185847
1.952,0.07769151004451633
1.956,0.07767821562427867
1.96,0.07767499419152668
1.964,0.07768780780090584
1.968,0.07769855392359343
1.972,0.07770182343743127
1.976,0.07770194364014589
1.98,0.07769865008576514
1.984,0.07769598158550044
1.988,0.07769901069390901
1.992,0.07770417941063795
1.996,0.0777174497903327
2.0,0.07772641691284382
2.004,0.07772877288605048
2.008,0.07773531191372617
2.012,0.07773156158902982
2.016,0.07771456492518165
2.02,0.07770939620845273
2.024,0.07770235232937563
2.028,0.07769122155800123
2.032,0.07769239954460457
2.036,0.07771002126256879
2.04,0.07774165861705844
2.044,0.07775574637521264
2.048,0.07776394420035015
2.052,0.0777461061174996
2.056,0.0777196374797389
2.06,0.07770264081589073
2.064,0.0776924235851475
2.068,0.0776976644235052
2.072,0.07771497361441139
2.076,0.0777332444270346
2.08,0.07773456665689547
2.084,0.07774415883352266
2.088,0.07776586744378416
2.092,0.07777815216121899
2.096,0.07778954737856555
2.1,0.07778589321604092
2.104,0.07778406613477859
2.108,0.07778339299957669
2.112,0.07778805686490418
2.116,0.0777974807577309
2.12,0.07779269668968876
2.124,0.07777471436358067
2.128,0.07776596360595588
2.132,0.07776048236216891
2.136,0.07775670799692964
2.14,0.07776726179527384
2.144,0.07777678185027224
2.148,0.0777886338379344
2.152,0.07780714505598685
2.156,0.07779762500098844
2.16,0.0777857008916975
2.164,0.07778784050001786
2.168,0.07778375360772057
2.172,0.0777701707009678
2.176,0.07779601428461246
2.18,0.07781132811045584
2.184,0.07783337328831831
2.188,0.07784866307361878
2.192,0.0778621978992857
2.196,0.0778694341027062
2.2,0.0778607795072531
2.204,0.07785193258745661
2.208,0.07783193085574279
2.212,0.07780678444784297
2.216,0.0777869269593867
2.22,0.07777820024230483
2.224,0.07776235752451709
2.228,0.07774588975261328
2.232,0.07775464051023807
2.236,0.07777519517443918
2.24,0.07779185527068638
2.244,0.07781281862411721
2.248,0.07784823034384612
2.2520000000000002,0.07790660078206867
2.2560000000000002,0.077928044946358
2.2600000000000002,0.0779327088116855
2.2640000000000002,0.07797389026171647
2.2680000000000002,0.07800552761620612
2.2720000000000002,0.07804060276833408
2.2760000000000002,0.07804526663366158
2.2800000000000002,0.07803396757848671
2.2840000000000003,0.07802408691534442
2.2880000000000003,0.07800896541384443
2.2920000000000003,0.07798651154675224
2.2960000000000003,0.07798160727599548
2.3000000000000003,0.07798110242459405
2.3040000000000003,0.0779556434896362
2.308,0.07794578686703685
2.312,0.07796033139550662
2.316,0.07794667636712507
2.32,0.07794136340713859
2.324,0.07795321539480075
2.328,0.07796622132852332
2.332,0.07797264015348436
2.336,0.07798684811435319
2.34,0.07799384391234444
2.344,0.07799696918292473
2.348,0.0779876174117268
2.352,0.0779831458707427
2.356,0.07799271400682696
2.36,0.07800420538634523
2.364,0.07800850864352886
2.368,0.07800413326471646
2.372,0.07799240147976892
2.376,0.07798466042494699
2.38,0.07798985318221885
2.384,0.07799937323721726
2.388,0.07800312356191359
2.392,0.07801574484694936
2.396,0.07802971240238893
2.4,0.07804846402587064
2.404,0.078067648379125
2.408,0.07807365851485631
2.412,0.07807632701512102
2.416,0.07807772136661069
2.42,0.07808813092169732
2.424,0.07810055988238969
2.428,0.07810217059876567
2.432,0.07810193019333643
2.436,0.07808697697563691
2.44,0.07804964201247398
2.444,0.0780551713373468
2.448,0.07808166401565043
2.452,0.07809796350375375
2.456,0.07810046372021799
2.46,0.0780900060840455
2.464,0.07808329877256935
2.468,0.07808351513745568
2.472,0.07808147169130703
2.476,0.07807353831214169
2.48,0.07806882636572834
2.484,0.07805865721607096
2.488,0.078059282270187
2.492,0.0780460359310352
2.496,0.07802990472673234
2.5,0.07802100972585
2.504,0.0780105520896775
2.508,0.07801593717129277
2.512,0.07802677945615205
2.516,0.07803257322699704
2.52,0.0780328136324263
2.524,0.07803394353794378
2.528,0.07801937496893108
2.532,0.07801944709055984
2.536,0.07805245475599623
2.54,0.07805750327001054
2.544,0.07805976308104551
2.548,0.07806219117588097
2.552,0.07805555598603359
2.556,0.07805428183725856
2.56,0.07805370486422834
2.564,0.07805702245915204
2.568,0.07805644548612183
2.572,0.07806029197298987
2.576,0.07806748009532452
2.58,0.07806800898726889
2.584,0.0780585129728134
2.588,0.07807137466327842
2.592,0.07808346705636983
2.596,0.07808118320479192
2.6,0.0780781060152975
2.604,0.07808959739481576
2.608,0.07810649789649222
2.612,0.07811443127565756
2.616,0.07811255611330939
2.62,0.07809481419263055
2.624,0.07809587197651927
2.628,0.0780995261390439
2.632,0.07810286777451052
2.636,0.07810156958519254
2.64,0.07810467081522991
2.644,0.07810467081522991
2.648,0.07810051180130384
2.652,0.07809200144910829
2.656,0.0780882992054978
2.66,0.07809741057126647
2.664,0.07809301115191115
2.668,0.07808010138036028
2.672,0.0780647875545169
2.676,0.0780672637304382
2.68,0.07808327473202642
2.684,0.07809128023282054
2.688,0.07808673657020766
2.692,0.07808745778649542
2.696,0.07808276988062499
2.7,0.07807603852860592
2.704,0.07809517480077442
2.708,0.07810265140962419
2.712,0.07811584966769015
2.716,0.07812541780377441
2.72,0.07811536885683165
2.724,0.07810935872110034
2.728,0.07811452743782926
2.732,0.07810921447784278
2.736,0.0781071469911512
2.74,0.07809517480077442
2.744,0.0780838276645137
2.748,0.07808322665094057
2.7520000000000002,0.07807947632624423
2.7560000000000002,0.07807019667667509
2.7600000000000002,0.07810803649123944
2.7640000000000002,0.07813147602059158
2.7680000000000002,0.07812820650675374
2.7720000000000002,0.07810659405866392
2.7760000000000002,0.07809517480077442
2.7800000000000002,0.07808524605654629
2.7840000000000003,0.0780674560547816
2.7880000000000003,0.07808341897528398
2.7920000000000003,0.0780957277332617
2.7960000000000003,0.07809637682792069
2.8000000000000003,0.07808137552913533
2.8040000000000003,0.07810681042355025
2.8080000000000003,0.07811671512723546
2.8120000000000003,0.07812185980342147
2.816,0.07812753337155183
2.82,0.0781316923854779
2.824,0.07813015379073068
2.828,0.07813347138565437
2.832,0.07814354437314006
2.836,0.07814585226526088
2.84,0.07812481679020128
2.844,0.07811027226173149
2.848,0.0781001992742458
2.852,0.07808983780024502
2.856,0.07807981289384519
2.86,0.07807680782597953
2.864,0.07808166401565043
2.868,0.07808351513745568
2.872,0.07809462186828714
2.876,0.07813748615632289
2.88,0.07815520403645881
2.884,0.07814770338706613
2.888,0.07812335031708284
2.892,0.07810753163983801
2.896,0.07813075480430381
2.9,0.0781432078055391
2.904,0.07814974683321478
2.908,0.07815109310361859
2.912,0.0781557569689461
2.916,0.07814544357603115
2.92,0.07813561099397472
2.924,0.07812957681770048
2.928,0.078125225479431
2.932,0.07811635451909159
2.936,0.07810279565288174
2.94,0.07809349196276966
2.944,0.07808445271862977
2.948,0.07807380275811387
2.952,0.0780556521482053
2.956,0.07804964201247398
2.96,0.07807796177203993
2.964,0.07809356408439844
2.968,0.07809921361198587
2.972,0.07810159362573547
2.976,0.07809854047678397
2.98,0.0780990453281854
2.984,0.07810524778826011
2.988,0.07811320520796837
2.992,0.0781246485064008
2.996,0.0781348416966011
3.0,0.07813440896682845
3.004,0.07812301374948188
3.008,0.07811717189755105
3.012,0.07810601708563372
3.016,0.0780943814628579
3.02,0.07809738653072355
3.024,0.07808051006959002
3.028,0.07809053497598985
3.032,0.07809998290935947
3.036,0.07809774713886743
3.04,0.07809909340927125
3.044,0.0780858230295765
3.048,0.07808808284061147
3.052,0.07810870962644136
3.056,0.07810782012635312
3.06,0.07809909340927125
3.064,0.07809601621977681
3.068,0.07808957335427284
3.072,0.07808214482650894
3.076,0.07807572600154788
3.08,0.07807998117764565
3.084,0.07809911744981417
3.088,0.07810931064001449
3.092,0.07811298884308204
3.096,0.0781078922479819
3.1,0.07810193019333643
3.104,0.07810041563913213
3.108,0.07810697870735073
3.112,0.07811092135639047
3.116,0.07812592265517584
3.12,0.07815085269818933
3.124,0.07816760895660825
3.128,0.0781879232153801
3.132,0.07819746731092142
3.136,0.07819503921608598
3.14,0.07818203328236341
3.144,0.07817655203857644
3.148,0.0781721285786782
3.152,0.07816933987569886
3.156,0.07816948411895641
3.16,0.07818063893087374
3.164,0.07820775666329344
3.168,0.07821544963702952
3.172,0.07822614767863126
3.176,0.07824278373433555
3.18,0.07824699082934747
3.184,0.07826583861500087
3.188,0.0782849989277123
3.192,0.07829598545582915
3.196,0.07830591420005728
3.2,0.07831437647116697
3.204,0.078306971983946
3.208,0.07831252534936173
3.212,0.0783228627828196
3.216,0.07833091636469956
3.22,0.07833702266260258
3.224,0.07833702266260258
3.228,0.07834327320376315
3.232,0.0783459897851137
3.236,0.07834707160954534
3.24,0.07835368275884978
3.244,0.07835796197549048
3.248,0.078345893622942
3.2520000000000002,0.07834440310928063
3.2560000000000002,0.07835296154256202
3.2600000000000002,0.07836438080045152
3.2640000000000002,0.07837236226070271
3.2680000000000002,0.07837916573435057
3.2720000000000002,0.07838318050501909
3.2760000000000002,0.07838060816692607
3.2800000000000002,0.0783909936814698
3.2840000000000003,0.07840916833192131
3.2880000000000003,0.07842597267142606
3.2920000000000003,0.07843195876661446
3.2960000000000003,0.0784358052534825
3.3000000000000003,0.07844159902432749
3.3040000000000003,0.07843433878036406
3.3080000000000003,0.07843061249621064
3.3120000000000003,0.07843099714489744
3.3160000000000003,0.07843450706416454
3.3200000000000003,0.07844306549744592
3.3240000000000003,0.07844763320060173
3.3280000000000003,0.07846297106698805
3.332,0.07846318743187437
3.336,0.07845929286392048
3.34,0.07846374036436166
3.344,0.0784867231233982
3.348,0.07848573746113827
3.352,0.07847628952776864
3.356,0.07848066490658104
3.36,0.07850881638234652
3.364,0.07851083578795225
3.368,0.0784974692460858
3.372,0.07849929632734812
3.376,0.07850968184189183
3.38,0.07851910573471854
3.384,0.07851456207210566
3.388,0.07852388980276066
3.392,0.07853021246555
3.396,0.07855148834603887
3.4,0.07856528761767796
3.404,0.07856954279377575
3.408,0.07857221129404045
3.412,0.07856805228011438
3.416,0.07857598565927972
3.42,0.07857028805060642
3.424,0.07856711469894029
3.428,0.07855593584648005
3.432,0.07855891687380277
3.436,0.07858353438975824
3.44,0.07858839057942915
3.444,0.07859625183696571
3.448,0.07858829441725744
3.452,0.07858668370088145
3.456,0.07859312656638542
3.46,0.07859716537759687
3.464,0.07861238304126855
3.468,0.07863704863830988
3.472,0.07865113639646408
3.476,0.0786620027218663
3.48,0.07866758012782496
3.484,0.07865298751826932
3.488,0.07864216927395296
3.492,0.07863745732753961
3.496,0.07864007774671847
3.5,0.07863774581405471
3.504,0.07863827470599907
3.508,0.07864414059847283
3.512,0.07864281836861194
3.516,0.07863428397587348
3.52,0.0786324088135253
3.524,0.07864188078743786
3.528,0.0786202202582622
3.532,0.0786097626220897
3.536,0.07862135016377968
3.54,0.07863755348971131
3.544,0.07864464544987426
3.548,0.07864356362544263
3.552,0.07864096724680669
3.556,0.0786343080164164
3.56,0.07860942605448876
3.564,0.07858795784965648
3.568,0.07861091656815011
3.572,0.078618994190573
3.576,0.07862930758348795
3.58,0.07864149613875106
3.584,0.07865760330251098
3.588,0.07866310858684086
3.592,0.07864947759900225
3.596,0.07863635146256505
3.6,0.07863875551685758
3.604,0.07864058259811989
3.608,0.0786227925963552
3.612,0.07863575044899192
3.616,0.07865868512694262
3.62,0.07868330264289808
3.624,0.07869428917101493
3.628,0.07870195810420809
3.632,0.07872018083574543
3.636,0.07873063847191793
3.64,0.07872051740334639
3.644,0.07871402645675657
3.648,0.07870775187505308
3.652,0.07868933681917233
3.656,0.07868438446732973
3.66,0.0787032082124402
3.664,0.07870424195578599
3.668,0.07870645368573512
3.672,0.07870267932049585
3.676,0.07870426599632892
3.68,0.07871445918652922
3.684,0.07872931624205703
3.688,0.07874121631080504
3.692,0.07874438966247117
3.696,0.07874626482481935
3.7,0.07873979791877245
3.704,0.07874239429740838
3.708,0.07875294809575258
3.712,0.0787642952320133
3.716,0.07876756474585113
3.72,0.07876340573192506
3.724,0.07877929653079867
3.728,0.07878578747738849
3.732,0.07877708480084954
3.736,0.07877278154366592
3.74,0.07875523194733047
3.744,0.0787488852439982
3.748,0.07876285279943777
3.7520000000000002,0.07874667351404908
3.7560000000000002,0.07873111928277643
3.7600000000000002,0.07872229640352287
3.7640000000000002,0.07872198387646483
3.7680000000000002,0.07872883543119853
3.7720000000000002,0.07873234535046562
3.7760000000000002,0.07872578228224703
3.7800000000000002,0.07872587844441872
3.7840000000000003,0.07873520617507372
3.7880000000000003,0.07873393202629869
3.7920000000000003,0.07874609654101887
3.7960000000000003,0.07876316532649581
3.8000000000000003,0.07876124208306179
3.8040000000000003,0.07874914968997038
3.8080000000000003,0.07874157691894892
3.8120000000000003,0.07874282702718104
3.8160000000000003,0.07875251536597992
3.8200000000000003,0.078757636001623
3.8240000000000003,0.0787650645293869
3.8280000000000003,0.07877660398999103
3.8320000000000003,0.07877011304340122
3.8360000000000003,0.07877432013841314
3.84,0.07876758878639406
3.844,0.07874758705468024
3.848,0.0787428029866381
3.852,0.07874994302788692
3.856,0.07874200964872158
3.86,0.07873597547244733
3.864,0.07873614375624781
3.868,0.07875662629882013
3.872,0.07877379124646877
3.876,0.07877643570619056
3.88,0.07878078704446002
3.884,0.07880857791208164
3.888,0.07882208869720563
3.892,0.07883064713048703
3.896,0.07883644090133202
3.9,0.07882600730570245
3.904,0.07882047798082964
3.908,0.07880655850647592
3.912,0.07879754330287894
3.916,0.07879177357257687
3.92,0.07878756647756495
3.924,0.07877816662528117
3.928,0.07878021007142982
3.932,0.0787673483809648
3.936,0.07877516155741551
3.94,0.07878278240952283
3.944,0.07878234967975017
3.948,0.07878982628859993
3.952,0.0787900907345721
3.956,0.07880088493834554
3.96,0.07880566900638768
3.964,0.07880934720945525
3.968,0.0787879030451659
3.972,0.07879768754613649
3.976,0.07880992418248545
3.98,0.07881817008870881
3.984,0.07882333880543774
3.988,0.07882420426498306
3.992,0.07882105495385984
3.996,0.07882242526480658
4.0,0.07882514184615713
4.0040000000000004,0.07880713547950612
4.008,0.07879254286995048
4.0120000000000005,0.07878208523377798
4.016,0.07877814258473825
4.0200000000000005,0.07878307089603792
4.024,0.07878465757187099
4.0280000000000005,0.07879730289744968
4.032,0.07881064539877321
4.0360000000000005,0.07882124727820325
4.04,0.07883444553626921
4.0440000000000005,0.07885043249731452
4.048,0.07885447130852596
4.0520000000000005,0.07884834097008002
4.056,0.07884538398330021
4.0600000000000005,0.07884293184792183
4.064,0.0788469946996762
4.0680000000000005,0.07885418282201086
4.072,0.07884189810457605
4.0760000000000005,0.0788285315627096
4.08,0.07882980571148464
4.0840000000000005,0.07883350795509513
4.088,0.07882427638661182
4.0920000000000005,0.07881365046663887
4.096,0.07880312070883759
4.1,0.07879367277546796
4.104,0.07879069174814524
4.108,0.07880521223607209
4.112,0.07881470825052757
4.116,0.07881776139947909
4.12,0.07881550158844411
4.124,0.07881203975026287
4.128,0.07880869811479625
4.132,0.07880852983099577
4.136,0.0788099722635713
4.14,0.07881018862845762
4.144,0.07880956357434157
4.148,0.07879451419447035
4.152,0.07881360238555302
4.156,0.07881401107478274
4.16,0.07881184742591947
4.164,0.07882932490062614
4.168,0.07883345987400928
4.172,0.07882800267076524
4.176,0.07883870071236698
4.18,0.07886370287700926
4.184,0.07886956876948302
4.188,0.0788649770257843
4.192,0.07885180280826125
4.196,0.07884463872646953
4.2,0.0788331954280371
4.204,0.07881660745341867
4.208,0.07881372258826763
4.212,0.07882350708923822
4.216,0.07882461295421278
4.22,0.07882002121051405
4.224,0.07881285712872232
4.228,0.07881278500709356
4.232,0.07882588710298782
4.236,0.07881689593993377
4.24,0.07881211187189165
4.244,0.07880884235805381
4.248,0.07881946827802677
4.252,0.07882009333214283
4.256,0.07881761715622153
4.26,0.07881797776436542
4.264,0.07881622280473187
4.268,0.0788016061546333
4.272,0.07878641253150453
4.276,0.07877956097677084
4.28,0.07877516155741551
4.284,0.0787862923287899
4.288,0.07878929739665556
4.292,0.07881369854772471
4.296,0.078849951686456
4.3,0.0788492785512541
4.304,0.07883648898241787
4.308,0.0788249254812708
4.312,0.07880982802031375
4.316,0.07880968377705619
4.32,0.07882230506209195
4.324,0.07881694402101962
4.328,0.07883473402278432
4.332,0.07886206812009035
4.336,0.07887093908042976
4.34,0.07885572141675808
4.344,0.07884697065913328
4.348,0.07885024017297111
4.352,0.0788511777541452
4.356,0.07883336371183758
4.36,0.07882028565648623
4.364,0.07879970695174221
4.368,0.07877468074655701
4.372,0.07876350189409677
4.376,0.0787673483809648
4.38,0.0787735268004966
4.384,0.0787835276663535
4.388,0.0787931198429807
4.392,0.07879809623536621
4.396,0.07881932403476923
4.4,0.07882939702225492
4.404,0.07882547841375809
4.408,0.07881942019694092
4.412,0.07881504481812852
4.416,0.07880809710122312
4.42,0.07880660658756176
4.424,0.0788016061546333
4.428,0.07879297559972313
4.432,0.07879631723518975
4.436,0.07880509203335746
4.44,0.07880535647932965
4.444,0.07880583729018815
4.448,0.07880338515480978
4.452,0.0787987453300252
4.456,0.0788119676286341
4.46,0.07879487480261423
4.464,0.07881369854772471
4.468,0.07882040585920086
4.472,0.07882170404851882
4.476,0.07883107986025968
4.48,0.07882913257628273
4.484,0.07883107986025968
4.488,0.07883276269826445
4.492,0.0788353831174433
4.496,0.07882877196813885
4.5,0.0788307192521158
4.5040000000000004,0.0788238676973821
4.508,0.0788115829799473
4.5120000000000005,0.07879013881565795
4.516,0.0787828545311516
4.5200000000000005,0.07877922440916989
4.524,0.07877835894962458
4.5280000000000005,0.0787854268692446
4.532,0.07878660485584794
4.5360000000000005,0.07880562092530183
4.54,0.07882192041340515
4.5440000000000005,0.0788187230211961
4.548,0.07881456400727002
4.5520000000000005,0.07881252056112137
4.556,0.07880953953379864
4.5600000000000005,0.07880336111426685
4.564,0.0787921822618066
4.5680000000000005,0.07878422484209834
4.572,0.07875559255547435
4.5760000000000005,0.07876597807001806
4.58,0.07879037922108721
4.5840000000000005,0.0788038900062112
4.588,0.07879961078957051
4.5920000000000005,0.07880148595191867
4.596,0.07880694315516272
4.6000000000000005,0.07880901064185429
4.604,0.07881213591243456
4.6080000000000005,0.07881586219658798
4.612,0.07882011737268575
4.616,0.07881372258826763
4.62,0.07880576516855937
4.624,0.07879547581618736
4.628,0.07878804728842345
4.632,0.07880035604640119
4.636,0.07880280818177957
4.64,0.07879754330287894
4.644,0.07879980311391391
4.648,0.07879900977599738
4.652,0.07878682122073427
4.656,0.07878311897712378
4.66,0.07878667697747671
4.664,0.07879098023466034
4.668,0.07881514098030022
4.672,0.07883120006297431
4.676,0.07882680064361898
4.68,0.07881771331839323
4.684,0.07879607682976049
4.688,0.07880564496584475
4.692,0.07881588623713091
4.696,0.07882026161594331
4.7,0.07882014141322868
4.704,0.07881112620963171
4.708,0.07879610087030342
4.712,0.07879737501907846
4.716,0.07880023584368656
4.72,0.07880828942556653
4.724,0.0788123522773209
4.728,0.07880545264150135
4.732,0.07881869898065316
4.736,0.07884490317244171
4.74,0.07884675429424695
4.744,0.0788569955655331
4.748,0.07885091330817302
4.752,0.07884201830729068
4.756,0.07884935067288287
4.76,0.07885497615992738
4.764,0.07885567333567223
4.768,0.07886016891719924
4.772,0.07884838905116587
4.776,0.07883603221210228
4.78,0.07883394068486778
4.784,0.07883564756341548
4.788,0.07883458977952677
4.792,0.07882807479239402
4.796,0.07881184742591947
4.8,0.07880648638484714
4.804,0.07880925104728354
4.808,0.07881780948056494
4.812,0.07882463699475571
4.816,0.07882249738643536
4.82,0.07881588623713091
4.824,0.07882343496760945
4.828,0.0788314885494894
4.832,0.07884160961806094
4.836,0.07884343669932327
4.84,0.07883511867147112
4.844,0.07882283395403632
4.848,0.07883725827979148
4.852,0.078848990064739
4.856,0.07884627348338845
4.86,0.07884221063163407
4.864,0.07882470911638448
4.868,0.07882932490062614
4.872,0.07884716298347667
4.876,0.07885807738996475
4.88,0.07886889563428112
4.884,0.07888387289252356
4.888,0.0788940901232668
4.892,0.07890272067817697
4.896,0.07890764898947664
4.9,0.0788928640555776
4.904,0.07886872735048064
4.908,0.07884894198365315
4.912,0.07883956617191229
4.916,0.07883797949607922
4.92,0.07884310013172231
4.924,0.0788440377128964
4.928,0.07884711490239082
4.932,0.07883228188740594
4.936,0.07884447044266905
4.94,0.07886420772841068
4.944,0.0788706025128288
4.948,0.07887416051318175
4.952,0.07887555486467142
4.956,0.07887685305398938
4.96,0.07888000236511258
4.964,0.07887940135153945
4.968,0.07887892054068095
4.972,0.07887851185145123
4.976,0.07886322206615075
4.98,0.0788442300372398
4.984,0.07883485422549895
4.988,0.07881966060237018
4.992,0.07882067030517304
4.996,0.07884237891543455
5.0,0.07886158730923183
5.0040000000000004,0.07886863118830893
5.008,0.07886274125529225
5.0120000000000005,0.07885576949784392
5.016,0.07884949491614043
5.0200000000000005,0.07885233170020561
5.024,0.07887339121580814
5.0280000000000005,0.07888817614970718
5.032,0.07890072531311416
5.0360000000000005,0.07891070213842814
5.04,0.07891462074692497
5.0440000000000005,0.07890764898947664
5.048,0.07891933269333833
5.0520000000000005,0.07891505347669762
5.056,0.07890324957012132
5.0600000000000005,0.07888839251459351
5.064,0.07886644349890275
5.0680000000000005,0.0788465138888177
5.072,0.07884129709100292
5.0760000000000005,0.07882776226533598
5.08,0.07881581411550213
5.0840000000000005,0.07881514098030022
5.088,0.0788107415609449
5.0920000000000005,0.07880780861470803
5.096,0.0788227377918646
5.1000000000000005,0.07883987869897033
5.104,0.07884293184792183
5.1080000000000005,0.07885490403829862
5.112,0.07887185262106093
5.1160000000000005,0.07887303060766426
5.12,0.07886675602596077
5.124,0.07887423263481053
5.128,0.078883728649266
5.132,0.0788784878109083
5.136,0.07887661264856012
5.14,0.0788766847701889
5.144,0.07886151518760307
5.148,0.07885269230834949
5.152,0.07885442322744012
5.156,0.07884343669932327
5.16,0.07883858050965235
5.164,0.07883461382006969
5.168,0.07882732953556333
5.172,0.07882103091331692
5.176,0.07880703931733442
5.18,0.07879042730217306
5.184,0.07882288203512217
5.188,0.0788300461169139
5.192,0.07882865176542422
5.196,0.07883285886043614
5.2,0.07882523800832884
5.204,0.0788284354005379
5.208,0.07883273865772152
5.212,0.07884334053715156
5.216,0.07883922960431135
5.22,0.07882064626463012
5.224,0.07880953953379864
5.228,0.07879809623536621
5.232,0.07878453736915637
5.236,0.0787879030451659
5.24,0.07881357834501009
5.244,0.07883216168469132
5.248,0.07884406175343932
5.252,0.07885088926763009
5.256,0.07884757167270641
5.26,0.0788415615369751
5.264,0.07882994995474218
5.268,0.07880819326339483
5.272,0.0787966538027907
5.276,0.07878795112625175
5.28,0.07877266134095129
5.284,0.07875929479908485
5.288,0.07874054317560314
5.292,0.07871236765929472
5.296,0.07872907583662779
5.3,0.07874626482481935
5.304,0.07875213071729312
5.308,0.07876169885337737
5.312,0.07877061789480264
5.316,0.07878186886889166
5.32,0.07878035431468737
5.324,0.078783046855495
5.328,0.07878826365330978
5.332,0.07878802324788053
5.336,0.07878316705820963
5.34,0.07877585873316034
5.344,0.07877013708394413
5.348,0.07877222861117864
5.352,0.07876374229952601
5.356,0.07875205859566434
5.36,0.07876052086677403
5.364,0.07877975330111424
5.368,0.07877388740864048
5.372,0.07877927249025574
5.376,0.07878585959901725
5.38,0.07877927249025574
5.384,0.07877823874690995
5.388,0.07878001774708641
5.392,0.07878011390925813
5.396,0.0787759068142462
5.4,0.07877379124646877
5.404,0.07875362123095447
5.408,0.07876455967798547
5.412,0.0787680936377955
5.416,0.0787668675701063
5.42,0.07876306916432411
5.424,0.07876364613735432
5.428,0.07875996793428675
5.432,0.0787594390423424
5.436,0.07875845338008246
5.44,0.0787572513529362
5.444,0.07876710797553556
5.448,0.07877258921932251
5.452,0.07877499327361503
5.456,0.0787909321535745
5.46,0.0787980721948233
5.464,0.07879624511356097
5.468,0.07879473055935668
5.472,0.0787899945724004
5.476,0.07878701354507767
5.48,0.07877612317913253
5.484,0.0787696322325427
5.488,0.07877090638131774
5.492,0.07876602615110391
5.496,0.07877258921932251
5.5,0.07877506539524382
5.5040000000000004,0.07876831000268182
5.508,0.07876585786730343
5.5120000000000005,0.07877756561170804
5.516,0.07879225438343537
5.5200000000000005,0.07879658168116192
5.524,0.0787913168022613
5.5280000000000005,0.07879304772135191
5.532,0.0787899945724004
5.5360000000000005,0.07876831000268182
5.54,0.078757636001623
5.5440000000000005,0.07878843193711026
5.548,0.0787853307070729
5.5520000000000005,0.07878114765260391
5.556,0.07877852723342506
5.5600000000000005,0.07876669928630582
5.564,0.07876799747562378
5.5680000000000005,0.07876145844794812
5.572,0.07875604932578993
5.5760000000000005,0.07875580892036067
5.58,0.07875160182534875
5.5840000000000005,0.07874386077052682
5.588,0.0787579244881381
5.5920000000000005,0.07876898313788372
5.596,0.0787684782864823
5.6000000000000005,0.0787758106520745
5.604,0.07878965800479945
5.6080000000000005,0.0788028322223225
5.612,0.07878708566670645
5.6160000000000005,0.07876186713717785
5.62,0.0787634538130109
5.6240000000000006,0.07875924671799898
5.628,0.07874169712166355
5.632,0.0787446060273575
5.636,0.078756025285247
5.64,0.07876547321861664
5.644,0.07876898313788372
5.648,0.07876008813700137
5.652,0.07874975070354351
5.656,0.07875999197482968
5.66,0.07875443860941393
5.664,0.07875311637955305
5.668,0.07874746685196561
5.672,0.07872732087699424
5.676,0.07872650349853479
5.68,0.07872830653925418
5.684,0.07872210407917946
5.688,0.07871251190255228
5.692,0.07871135795649187
5.696,0.07870383326655626
5.7,0.07870356882058409
5.704,0.07870808844265403
5.708,0.0787224166062375
5.712,0.07873732174285115
5.716,0.07873705729687898
5.72,0.07872248872786626
5.724,0.07871784890308169
5.728,0.07871325715938296
5.732,0.07870349669895531
5.736,0.07870373710438455
5.74,0.07870366498275579
5.744,0.07871126179432017
5.748,0.07872446005238613
5.752,0.07872746512025179
5.756,0.07872402732261348
5.76,0.07872885947174146
5.764,0.07870455448284401
5.768,0.07870671813170729
5.772,0.0787080644021111
5.776,0.07870486700990205
5.78,0.07870058779326135
5.784,0.0786786628181135
5.788,0.07866979185777409
5.792,0.07868544225121843
5.796,0.07869563544141875
5.8,0.07868880792722797
5.804,0.07869364007635594
5.808,0.07870770379396723
5.812,0.0787234743901262
5.816,0.07873503789127326
5.82,0.07873208090449345
5.824,0.07873316272892508
5.828,0.07872845078251173
5.832,0.07874085570266116
5.836,0.07876917546222713
5.84,0.07877852723342506
5.844,0.07877718096302123
5.848,0.0787778060171373
5.852,0.0787778060171373
5.856,0.07877843107125335
5.86,0.0787862923287899
5.864,0.07879391318089722
5.868,0.07880083685725969
5.872,0.07880256777635032
5.876,0.07881100600691708
5.88,0.07882636791384633
5.884,0.07882333880543774
5.888,0.07882184829177638
5.892,0.07882045394028671
5.896,0.07880836154719531
5.9,0.07879896169491153
5.904,0.07882723337339163
5.908,0.07882485335964204
5.912,0.0788239638595538
5.916,0.0788328107793503
5.92,0.07884504741569925
5.924,0.07886401540406729
5.928,0.07889127737974454
5.932,0.07890882697607998
5.936,0.07891137527363005
5.94,0.07890726434078983
5.944,0.07890483624595439
5.948,0.07891526984158395
5.952,0.07891844319325009
5.956,0.07892837193747822
5.96,0.07894726780421747
5.964,0.07895717250790268
5.968,0.07896378365720713
5.972,0.07896671660344401
5.976,0.07896183637323019
5.98,0.07896827923873416
5.984,0.07897477018532398
5.988,0.07897123622551397
5.992,0.07898142941571427
5.996,0.07899592586309821
6.0,0.07899551717386848
6.0040000000000004,0.0790022966069734
6.008,0.07901955771679374
6.0120000000000005,0.07903237132617291
6.016,0.07908913104801946
6.0200000000000005,0.07910285819802979
6.024,0.0791128590638867
6.0280000000000005,0.07914012103956394
6.032,0.07915163645962514
6.0360000000000005,0.079152646162428
6.04,0.07915649264929604
6.0440000000000005,0.07915574739246536
6.048,0.07914961705401942
6.0520000000000005,0.07914632349963865
6.056,0.0791479822971005
6.0600000000000005,0.07917447497540414
6.064,0.07917690307023958
6.0680000000000005,0.07917570104309332
6.072,0.07917192667785405
6.0760000000000005,0.07916925817758935
6.08,0.07918988496341924
6.0840000000000005,0.07920986265459012
6.088,0.07922399849383018
6.0920000000000005,0.07924565902300584
6.096,0.0792624633625106
6.1000000000000005,0.07926539630874749
6.104,0.07927472403940249
6.1080000000000005,0.07927123816067833
6.112,0.07927217574185241
6.1160000000000005,0.0792740749447435
6.12,0.07927078139036274
6.1240000000000006,0.0792734018095416
6.128,0.07930359673145573
6.132000000000001,0.07931090505650501
6.136,0.07931198688093664
6.140000000000001,0.07932056935476096
6.144,0.07931794893558211
6.148,0.07931112142139134
6.152,0.07933232518025142
6.156,0.07935427419594218
6.16,0.07935987564244378
6.164,0.07935588491231818
6.168,0.0793469658708929
6.172,0.07935828896661071
6.176,0.07937184783282054
6.18,0.07937869938755425
6.184,0.07937732907660751
6.188,0.07938783479386585
6.192,0.07940276397102244
6.196,0.0793951190783722
6.2,0.07940742783634994
6.204,0.0794200491213857
6.208,0.07941302928285153
6.212,0.07940461509282769
6.216,0.07940180234930543
6.22,0.0793966336325765
6.224,0.07939451806479907
6.228,0.0793924505781075
6.232,0.07938773863169415
6.236,0.07938389214482611
6.24,0.07940189851147712
6.244,0.07941351009371003
6.248,0.07942591501385947
6.252,0.0794290883655256
6.256,0.07940829329589524
6.26,0.07940439872794136
6.264,0.07943658901491828
6.268,0.07944791211063608
6.272,0.07945959581449775
6.276,0.07946966880198345
6.28,0.07946964476144051
6.284,0.07947529428902796
6.288,0.07948606445225848
6.292,0.07949529602074178
6.296,0.07950147444027357
6.3,0.07949481520988327
6.304,0.07949226691233319
6.308,0.07950041665638485
6.312,0.07950414294053827
6.316,0.07950950398161061
6.32,0.07953789586280534
6.324,0.0795582101215772
6.328,0.07957133625801438
6.332,0.07959871843640626
6.336,0.07961287831618924
6.34,0.07960920011312167
6.344,0.07960006470681007
6.348,0.07958821271914791
6.352,0.07959669903080054
6.356,0.0796061710047131
6.36,0.07960573827494044
6.364,0.07960684413991499
6.368,0.07959097738158433
6.372,0.0795778272046042
6.376,0.0796102819375533
6.38,0.07961496984342374
6.384,0.07960807020760419
6.388,0.07960054551766858
6.392,0.07960653161285697
6.396,0.07962908164212086
6.4,0.07964398677873454
6.404,0.07965744948277267
6.408,0.07967105643006837
6.412,0.07969069755363832
6.416,0.07970750189314307
6.42,0.07971610840751032
6.424,0.07970459298744911
6.428,0.07970384773061844
6.432,0.07970865583920349
6.436,0.0797151467857933
6.44,0.07972582078685213
6.444,0.07974325018047294
6.448,0.07974945264054766
6.452,0.07973974026120585
6.456,0.07972163773238312
6.46,0.07970896836626151
6.464,0.07970651623088314
6.468,0.0797081029067162
6.472,0.07971252636661445
6.476,0.07971755084008583
6.48,0.07971057908263751
6.484,0.07970182832501271
6.488,0.07973300890918678
6.492,0.07973406669307549
6.496,0.07972428219210491
6.5,0.07971981065112081
6.5040000000000004,0.0797095212987488
6.508,0.07970836735268838
6.5120000000000005,0.07969961659506358
6.516,0.07969865497334658
6.5200000000000005,0.07971101181241017
6.524,0.07971940196189108
6.5280000000000005,0.07971995489437836
6.532,0.07971870478614625
6.5360000000000005,0.07972231086758504
6.54,0.07973728812582748
6.5440000000000005,0.0797462552483386
6.548,0.07975188073538311
6.5520000000000005,0.07976503091236323
6.556,0.07976993518311998
6.5600000000000005,0.07977116125080917
6.564,0.07976846871000154
6.5680000000000005,0.07976577616919392
6.572,0.07975926118206117
6.5760000000000005,0.07976366060141649
6.58,0.07975765046568517
6.5840000000000005,0.07974918819457548
6.588,0.07973945177469074
6.5920000000000005,0.0797402691531502
6.596,0.0797419760316979
6.6000000000000005,0.07974137501812477
6.604,0.07973058081435133
6.6080000000000005,0.07973447538230521
6.612,0.07974639949159615
6.6160000000000005,0.07973786509885768
6.62,0.07973461962556277
6.6240000000000006,0.07974555807259377
6.628,0.07974894778914624
6.632000000000001,0.0797472168700556
6.636,0.07972824888168757
6.640000000000001,0.07972214258378456
6.644,0.07974243280201349
6.648000000000001,0.07974851505937357
6.652,0.07973752853125674
6.656000000000001,0.0797310375846669
6.66,0.07971973852949203
6.664,0.07970853563648886
6.668,0.07969466424322098
6.672,0.07969516909462242
6.676,0.07970579501459538
6.68,0.07971065120426628
6.684,0.07971827205637359
6.688,0.07972988363860649
6.692,0.07974062976129409
6.696,0.07973822570700156
6.7,0.0797233205703879
6.704,0.07971017039340778
6.708,0.07970492955505007
6.712,0.07970670855522655
6.716,0.07970120327089665
6.72,0.07968990421572178
6.724,0.07968949552649206
6.728,0.07970141963578298
6.732,0.0797098097852639
6.736,0.07970867987974642
6.74,0.07971661325891174
6.744,0.07972014721872177
6.748,0.07972690261128376
6.752,0.07971057908263751
6.756,0.07972370521907471
6.76,0.07972839312494513
6.764,0.07971711811031318
6.768,0.07970673259576946
6.772,0.07969795779760175
6.776,0.07968615389102544
6.78,0.07967747525502943
6.784,0.07967430190336329
6.788,0.07966189698321385
6.792,0.07966321921307475
6.796,0.07967026309215185
6.8,0.07967483079530764
6.804,0.07967692232254214
6.808,0.07968516822876551
6.812,0.07968810117500238
6.816,0.07968718763437123
6.82,0.07969014462115104
6.824,0.0796984866895461
6.828,0.07970834331214546
6.832,0.07970194852772734
6.836,0.07969584222982433
6.84,0.0796901205806081
6.844,0.07968403832324802
6.848,0.07968764440468681
6.852,0.07968728379654293
6.856,0.07967995143095072
6.86,0.07967615302516853
6.864,0.07964689568442848
6.868,0.07964766498180209
6.872,0.07965793029363118
6.876,0.07965925252349207
6.88,0.07966370002393325
6.884,0.07965939676674963
6.888,0.07965158359029892
6.892,0.07965119894161211
6.896,0.07964927569817809
6.9,0.07964482819773691
6.904,0.07963271176410258
6.908,0.0796295864935223
6.912,0.07963783239974566
6.916,0.07963956331883629
6.92,0.07962203776304376
6.924,0.07959761257143169
6.928,0.07959453538193727
6.932,0.07960254088273137
6.936,0.07959174667895794
6.94,0.07957975044803822
6.944,0.07957907731283632
6.948,0.07957121605529975
6.952,0.07956708108191661
6.956,0.07957388455556447
6.96,0.07956871583883553
6.964,0.07956585501422743
6.968,0.07956883604155016
6.972,0.07957520678542535
6.976,0.0795615517570438
6.98,0.07956614350074252
6.984,0.07957801952894761
6.988,0.07957381243393569
6.992,0.0795702063524969
6.996,0.07956861967666383
7.0,0.07955941214872346
7.0040000000000004,0.07956496551413919
7.008,0.07957246616353188
7.0120000000000005,0.07956953321729499
7.016,0.07956434046002313
7.0200000000000005,0.0795587870946074
7.024,0.07955681577008752
7.0280000000000005,0.0795504209856694
7.032,0.07954743995834668
7.0360000000000005,0.07953659767348738
7.04,0.07953412149756607
7.0440000000000005,0.07953553988959866
7.048,0.07954013163329739
7.0520000000000005,0.07954255972813284
7.056,0.07954825733680614
7.0600000000000005,0.07954686298531646
7.064,0.07955349817516384
7.0680000000000005,0.07954421852559469
7.072,0.07951452845508199
7.0760000000000005,0.07948991093912652
7.08,0.0794836123168801
7.0840000000000005,0.07948719435777596
7.088,0.07946123057141667
7.0920000000000005,0.07946654353140316
7.096,0.07948262665462016
7.1000000000000005,0.0794709669913014
7.104,0.07947337104559393
7.1080000000000005,0.07947798682983559
7.112,0.07948048704629981
7.1160000000000005,0.07948827618220759
7.12,0.07948438161425371
7.1240000000000006,0.0794796215867545
7.128,0.079479140775896
7.132000000000001,0.07946995728849855
7.136,0.07946632716651683
7.140000000000001,0.07945675903043257
7.144,0.07943173282524738
7.148000000000001,0.07940913471489763
7.152,0.07940762016069335
7.156000000000001,0.07940081668704549
7.16,0.0794041583225121
7.164000000000001,0.07940742783634994
7.168,0.0794261313787458
7.172,0.07943190110904785
7.176,0.07941802971577998
7.18,0.07940923087706933
7.184,0.07940629793083245
7.188,0.07939067157793103
7.192,0.07938225738790719
7.196,0.07938918106426966
7.2,0.07938867621286823
7.204,0.07939636918660432
7.208,0.07940887026892546
7.212,0.0794085337013245
7.216,0.07939689807854867
7.22,0.07939043117250177
7.224,0.079363337480625
7.228,0.07936982842721482
7.232,0.07936966014341434
7.236,0.07935461076354314
7.24,0.07933852764032613
7.244,0.07933607550494776
7.248,0.07934403292465601
7.252,0.07935280772282374
7.256,0.079363337480625
7.26,0.07937292965725219
7.264,0.07936004392624424
7.268,0.07935355297965442
7.272,0.07936612618360434
7.276,0.07937869938755425
7.28,0.07938891661829749
7.284,0.079382642036594
7.288,0.07936958802178558
7.292,0.07936357788605426
7.296,0.07936297687248113
7.3,0.07935850533149703
7.304,0.07934475414094377
7.308,0.07933220497753679
7.312,0.07932278108471008
7.316,0.07932314169285397
7.32,0.07932136269267749
7.324,0.07932328593611152
7.328,0.0793303057746457
7.332,0.07933888824847002
7.336,0.07932208390896525
7.34,0.07933987391072995
7.344,0.07935040366853122
7.348,0.07934504262745888
7.352,0.07936321727791038
7.356,0.07935833704769656
7.36,0.07934999497930148
7.364,0.07935564450688892
7.368,0.07934542727614569
7.372,0.07933160396396366
7.376,0.07934114805950498
7.38,0.07934475414094377
7.384,0.07933701308612184
7.388,0.07933429650477129
7.392,0.07933581105897558
7.396,0.07933109911256223
7.4,0.07932453604434363
7.404,0.07931999238173075
7.408,0.07932477644977289
7.412,0.0793356427751751
7.416,0.07935047579016
7.42,0.07936040453438813
7.424,0.0793689389271266
7.428,0.07937300177888096
7.432,0.07937105449490402
7.436,0.07936593385926094
7.44,0.07935778411520927
7.444,0.07934386464085555
7.448,0.07930696240746526
7.452,0.07929744235246686
7.456,0.07929837993364094
7.46,0.07930268319082456
7.464,0.07930193793399389
7.468,0.07929696154160835
7.472,0.07930061570413299
7.476,0.07930799615081105
7.48,0.07931650650300659
7.484,0.07931258789450978
7.488,0.07931246769179515
7.492,0.07931381396219897
7.496,0.07931455921902965
7.5,0.07930025509598912
7.5040000000000004,0.07931657862463537
7.508,0.07933395993717034
7.5120000000000005,0.07932489665248751
7.516,0.07932121844941994
7.5200000000000005,0.07932299744959641
7.524,0.07931542467857496
7.5280000000000005,0.07931030404293188
7.532,0.07930929434012901
7.5360000000000005,0.07930539977217513
7.54,0.07929924539318625
7.5440000000000005,0.07930631331280628
7.548,0.07931607377323394
7.5520000000000005,0.07931287638102488
7.556,0.07931153011062106
7.5600000000000005,0.07930934242121486
7.564,0.07930609694791996
7.5680000000000005,0.0793004233797896
7.572,0.07930508724511709
7.5760000000000005,0.07930176965019341
7.58,0.07928902816244301
7.5840000000000005,0.07926739167381028
7.588,0.07928006103993189
7.5920000000000005,0.07929001382470295
7.596,0.07929037443284684
7.6000000000000005,0.07929578355500502
7.604,0.07929097544641997
7.6080000000000005,0.07928532591883253
7.612,0.07930167348802171
7.6160000000000005,0.0792920572708516
7.62,0.07928525379720375
7.6240000000000006,0.07928008508047482
7.628,0.07927167089045098
7.632000000000001,0.07928785017583968
7.636,0.07929542294686114
7.640000000000001,0.0792960480009772
7.644,0.07929349970342711
7.648000000000001,0.0792911918113063
7.652,0.07928232085096687
7.656000000000001,0.07928566248643348
7.66,0.07928628754054953
7.664000000000001,0.07928102266164891
7.668,0.0792807341751338
7.672000000000001,0.07927551737731901
7.676,0.07927996487776019
7.68,0.07928837906778403
7.684,0.07927748870183889
7.688,0.07927595010709168
7.692,0.07928960513547323
7.696,0.07928176791847959
7.7,0.07930636139389213
7.704,0.07930811635352568
7.708,0.07928950897330152
7.712,0.0792826333780249
7.716,0.07927775314781108
7.72,0.07927905133712904
7.724,0.07928583077023396
7.728,0.0792905427166473
7.732,0.07928801845964016
7.736,0.07928417197277211
7.74,0.07928133518870693
7.744,0.0792811188238206
7.748,0.0792714064444788
7.752,0.07926020355147563
7.756,0.0792552271590901
7.76,0.07925662151057976
7.764,0.07924671680689456
7.768,0.0792469572123238
7.772,0.07925330391565608
7.776,0.07926534822766164
7.78,0.07927720021532379
7.784,0.07928674431086512
7.788,0.07929539890631822
7.792,0.07928260933748198
7.796,0.07926099688939216
7.8,0.07926229507871012
7.804,0.07926849753878484
7.808,0.07924166829288025
7.812,0.07925246249665369
7.816,0.0792746519177737
7.82,0.07927268059325383
7.824,0.07927534909351855
7.828,0.0792753971746044
7.832,0.07927585394491997
7.836,0.07927811375595495
7.84,0.07927299312031187
7.844,0.07927299312031187
7.848,0.07926546843037625
7.852,0.07926412215997244
7.856,0.07927099775524907
7.86,0.0792733056473699
7.864,0.07926207871382379
7.868,0.07925568392940567
7.872,0.0792413317252793
7.876,0.07922171464225228
7.88,0.07921599299303607
7.884,0.07920411696483098
7.888,0.07920981457350428
7.892,0.0792235417235146
7.896,0.07922724396712509
7.9,0.07923274925145497
7.904,0.07922822962938503
7.908,0.07921753158778329
7.912,0.07919995795090491
7.916,0.07918026874624913
7.92,0.07917949944887552
7.924,0.07918630292252336
7.928,0.07918139865176661
7.932,0.07918483644940492
7.936,0.07918613463872289
7.94,0.07917267193468475
7.944,0.07914745340515614
7.948,0.07916500300149158
7.952,0.07915875246033102
7.956,0.07914394348588906
7.96,0.07913319736320146
7.964,0.07912411003797572
7.968,0.07912447064611959
7.972,0.07911396492886125
7.976,0.07910956550950593
7.98,0.07910362749540338
7.984,0.07909437188637716
7.988,0.07909247268348607
7.992,0.07909509310266492
7.996,0.07909954060310609
8.0,0.07909389107551866
8.004,0.07908953973724918
8.008000000000001,0.07908720780458543
8.012,0.07908759245327224
8.016,0.07908715972349958
8.02,0.07908300070957351
8.024000000000001,0.07908151019591214
8.028,0.07907999564170785
8.032,0.0790775675468724
8.036,0.07906311918057432
8.040000000000001,0.07905643590964109
8.044,0.07904838232776114
8.048,0.07902862100147656
8.052,0.0790179950815036
8.056000000000001,0.07900854714813398
8.06,0.0790366505428136
8.064,0.07904499261120868
8.068,0.07904203562442887
8.072000000000001,0.07903258769105924
8.076,0.07903960752959341
8.08,0.0790383574213613
8.084,0.07903018363676671
8.088000000000001,0.07902804402844636
8.092,0.07902441390646464
8.096,0.07901734598684462
8.1,0.0790177065949885
8.104000000000001,0.07902056741959661
8.108,0.07902063954122537
8.112,0.07903054424491059
8.116,0.07903850166461884
8.120000000000001,0.07903948732687878
8.124,0.07903879015113395
8.128,0.0790338858803772
8.132,0.07902725069052982
8.136000000000001,0.07901527850015304
8.14,0.07901208110794398
8.144,0.07901575931101155
8.148,0.07901893266267769
8.152000000000001,0.0790162882029559
8.156,0.07901734598684462
8.16,0.07901960579787959
8.164,0.07900234468805925
8.168000000000001,0.0789662357925855
8.172,0.07898703086221585
8.176,0.07901299464857514
8.18,0.07900830674270472
8.184000000000001,0.07899046865985418
8.188,0.07898253528068884
8.192,0.0789903003760537
8.196,0.07898674237570076
8.2,0.07898104476702747
8.204,0.07899448343052269
8.208,0.07900044548516816
8.212,0.07899231978165942
8.216,0.07899768082273176
8.22,0.07900008487702428
8.224,0.07900693643175798
8.228,0.0790164805272993
8.232,0.07900873947247737
8.236,0.07900381116117769
8.24,0.07900022912028183
8.244,0.07900196003937245
8.248,0.07899455555215147
8.252,0.07899109371397023
8.256,0.07898003506422462
8.26,0.07899320928174765
8.264,0.07900342651249088
8.268,0.0790066719857858
8.272,0.07900587864786927
8.276,0.07900573440461171
8.28,0.07900102245819836
8.284,0.07899710384970154
8.288,0.0790135235405195
8.292,0.07901936539245034
8.296,0.07900741724261648
8.3,0.07900316206651871
8.304,0.07898604519995593
8.308,0.07900265721511728
8.312,0.07899494020083828
8.316,0.07898356902403462
8.32,0.07898397771326435
8.324,0.07898219871308788
8.328,0.07898414599706483
8.332,0.07898056395616897
8.336,0.07896688488724449
8.34,0.07897813586133351
8.344,0.07899123795722778
8.348,0.07898359306457754
8.352,0.07898347286186293
8.356,0.07898318437534782
8.36,0.07899845012010535
8.364,0.07901383606757753
8.368,0.07900669602632873
8.372,0.07901203302685814
8.376,0.07902001448710932
8.38,0.07902362056854811
8.384,0.07902614482555527
8.388,0.07902121651425559
8.392,0.07901672093272856
8.396,0.0790185720545338
8.4,0.07901448516223651
8.404,0.07901472556766577
8.408,0.07901167241871425
8.412,0.078995348890068
8.416,0.07897722232070235
8.42,0.07900446025583667
8.424,0.07901539870286767
8.428,0.07903059232599643
8.432,0.07903323678571822
8.436,0.07902801998790343
8.44,0.07902758725813078
8.444,0.07903830934027545
8.448,0.07903833338081838
8.452,0.07902025489253857
8.456,0.07900306590434701
8.46,0.0789992434580219
8.464,0.0790032582286904
8.468,0.07899022825442492
8.472,0.07898510761878184
8.476,0.07898255932123176
8.48,0.0789706111713979
8.484,0.07896962550913797
8.488,0.07897008227945355
8.492,0.07896265375168965
8.496,0.0789584226161348
8.5,0.0789674618602747
8.504,0.0789742172528367
8.508000000000001,0.07897621261789949
8.512,0.0789675580224464
8.516,0.07895012862882558
8.52,0.07896176425160141
8.524000000000001,0.0789722218877739
8.528,0.07895647533215785
8.532,0.07897852051002031
8.536,0.07897801565861888
8.540000000000001,0.07898198234820156
8.544,0.0789855403485545
8.548,0.07897486634749568
8.552,0.07895933615676595
8.556000000000001,0.07894604173652829
8.56,0.07893604087067138
8.564,0.07892378019377949
8.568,0.07892173674763085
8.572000000000001,0.07891411589552354
8.576,0.07892887678887965
8.58,0.07893221842434626
8.584,0.07892228968011812
8.588000000000001,0.0789261602075291
8.592,0.07892536686961256
8.596,0.07890721625970398
8.6,0.07890404290803785
8.604000000000001,0.07890699989481766
8.608,0.07891231285480414
8.612,0.07891837107162131
8.616,0.07891952501768172
8.620000000000001,0.07892212139631764
8.624,0.07891837107162131
8.628,0.07891296194946312
8.632,0.07890120612397267
8.636000000000001,0.07889271981232006
8.64,0.07888889736599494
8.644,0.07890223986731845
8.648,0.07891087042222862
8.652000000000001,0.07891267346294802
8.656,0.07892428504518093
8.66,0.07891392357118014
8.664,0.07888988302825488
8.668000000000001,0.0789066633272167
8.672,0.07890909142205216
8.676,0.07889909055619525
8.68,0.07891130315200127
8.684000000000001,0.07891863551759348
8.688,0.078929405680824
8.692,0.0789356802625275
8.696,0.07894563304729856
8.700000000000001,0.07894279626323338
8.704,0.07893402146506566
8.708,0.078928444059107
8.712,0.0789261602075291
8.716,0.07891026940865549
8.72,0.0788898109066261
8.724,0.07887993024348382
8.728,0.07886372691755218
8.732,0.07885894284951006
8.736,0.07886351055266586
8.74,0.07887341525635107
8.744,0.07888146883823104
8.748,0.07888531532509907
8.752,0.07888788766319207
8.756,0.07889192647440352
8.76,0.07889627781267299
8.764,0.07888959454173977
8.768,0.07890678352993133
8.772,0.07891519771995517
8.776,0.07889139758245917
8.78,0.07891252921969047
8.784,0.07891911632845199
8.788,0.07891591893624293
8.792,0.07891031748974135
8.796,0.07889620569104422
8.8,0.07889144566354502
8.804,0.0788952440693272
8.808,0.07889142162300208
8.812,0.07889158990680256
8.816,0.07889594124507204
8.82,0.07888947433902514
8.824,0.0788863971495307
8.828,0.07888707028473262
8.832,0.07888637310898779
8.836,0.07889264769069128
8.84,0.07890079743474294
8.844,0.07890764898947664
8.848,0.07890695181373181
8.852,0.07889041192019923
8.856,0.07888033893271354
8.86,0.07887872821633755
8.864,0.07887483364838366
8.868,0.07888358440600846
8.872,0.07889166202843134
8.876,0.07889276789340591
8.88,0.07888692604147507
8.884,0.07886641945835982
8.888,0.07882855560325253
8.892,0.07885112967305935
8.896,0.0788630778228932
8.9,0.0788668762286754
8.904,0.07887336717526522
8.908,0.07889192647440352
8.912,0.07889747983981925
8.916,0.07888923393359588
8.92,0.07888678179821751
8.924,0.07888002640565552
8.928,0.0788706025128288
8.932,0.07885490403829862
8.936,0.0788437492263813
8.94,0.07883812373933678
8.944,0.0788421385100053
8.948,0.07883817182042263
8.952,0.07883511867147112
8.956,0.07884535994275728
8.96,0.0788495670377692
8.964,0.07885168260554663
8.968,0.07886613097184471
8.972,0.078870866958801
8.976,0.07886853502613723
8.98,0.07886413560678192
8.984,0.07885408665983916
8.988,0.07884497529407047
8.992,0.0788551684842708
8.996,0.07884478296972708
9.0,0.07883269057663567
9.004,0.07883913344213964
9.008000000000001,0.07883706595544807
9.012,0.07882278587295047
9.016,0.07882204061611978
9.02,0.07880992418248545
9.024000000000001,0.07880179847897671
9.028,0.07882562265701565
9.032,0.07882379557575332
9.036,0.07881966060237018
9.040000000000001,0.07882240122426366
9.044,0.07882067030517304
9.048,0.07882689680579068
9.052,0.0788215838458042
9.056000000000001,0.07881893938608242
9.06,0.07881523714247193
9.064,0.07881420339912615
9.068,0.07882716125176285
9.072000000000001,0.07882204061611978
9.076,0.07881449188564124
9.08,0.07882615154896
9.084,0.07881665553450452
9.088000000000001,0.0787985530056818
9.092,0.078796557640619
9.096,0.07879511520804348
9.1,0.07878718182887814
9.104000000000001,0.07879194185637735
9.108,0.07880504395227161
9.112,0.07881237631786382
9.116,0.07881386683152519
9.120000000000001,0.07880602961453155
9.124,0.07881107812854586
9.128,0.07880732780384951
9.132,0.0787854268692446
9.136000000000001,0.07876785323236624
9.14,0.07878708566670645
9.144,0.07878040239577322
9.148,0.07877908016591233
9.152000000000001,0.07878381615286861
9.156,0.07877977734165717
9.16,0.07878191694997752
9.164,0.07877547408447354
9.168000000000001,0.07877287770583762
9.172,0.0787805706795737
9.176,0.0787810514904322
9.18,0.07878552303141631
9.184000000000001,0.07879083599140278
9.188,0.07878460949078514
9.192,0.07878487393675732
9.196,0.07879073982923109
9.200000000000001,0.07878939355882728
9.204,0.07879134084280422
9.208,0.07880220716820643
9.212,0.0787993223030554
9.216000000000001,0.07879343237003872
9.22,0.07879136488334715
9.224,0.07878023411197274
9.228,0.07878396039612616
9.232,0.07878460949078514
9.236,0.07878432100427005
9.24,0.07878371999069692
9.244,0.07876537705644493
9.248,0.07875162586589168
9.252,0.07878206119323507
9.256,0.07878189290943459
9.26,0.07878525858544412
9.264,0.07879268711320803
9.268,0.07879177357257687
9.272,0.07879249478886463
9.276,0.07878631636933284
9.28,0.07878340746363888
9.284,0.07878006582817226
9.288,0.07877119486783285
9.292,0.0787620113804354
9.296,0.07875588104198945
9.3,0.07874761109522316
9.304,0.07874426945975656
9.308,0.07874542340581696
9.312,0.07874648118970567
9.316,0.07875138546046243
9.32,0.07875955924505702
9.324,0.07877013708394413
9.328,0.07878785496408006
9.332,0.0787944661133845
9.336,0.07880167827626208
9.34,0.07880821730393775
9.344,0.07879489884315716
9.348,0.07876650696196243
9.352,0.078746697554592
9.356,0.07873583122918978
9.36,0.07873994216203001
9.364,0.07874042297288851
9.368,0.07872929220151412
9.372,0.07873667264819217
9.376,0.07874124035134797
9.38,0.078723859038813
9.384,0.07872494086324464
9.388,0.07873580718864685
9.392,0.07871837779502604
9.396,0.07870787207776771
9.4,0.07870808844265403
9.404,0.07871051653748948
9.408,0.07872405136315641
9.412,0.07872325802523987
9.416,0.07872025295737421
9.42,0.07871183876735037
9.424,0.07869907323905706
9.428,0.07869068308957614
9.432,0.078700058901317
9.436,0.07870912218599982
9.44,0.0787099636050022
9.444,0.0787125359430952
9.448,0.07871280038906739
9.452,0.07870960299685832
9.456,0.07869698171182256
9.46,0.07868238910226692
9.464,0.07867438360147282
9.468,0.07866332495172719
9.472,0.07867524906101812
9.476,0.07869476998187344
9.48,0.07869589988739092
9.484,0.07869041864360396
9.488,0.07869287077898234
9.492,0.07867015246591796
9.496,0.0786628681814116
9.5,0.07866854174954198
9.504,0.07865272307229715
9.508000000000001,0.07864118361169302
9.512,0.07862582170476377
9.516,0.07860613250010799
9.52,0.07860920968960243
9.524000000000001,0.07861772004179797
9.528,0.07863046152954836
9.532,0.07863743328699668
9.536,0.07863123082692196
9.540000000000001,0.07862882677262943
9.544,0.07864930931520177
9.548,0.07865522328876137
9.552,0.07865195377492354
9.556000000000001,0.07864697738253801
9.56,0.07863512539487585
9.564,0.07862618231290766
9.568,0.07862132612323676
9.572000000000001,0.07862425906947364
9.576,0.07863111062420734
9.58,0.07861945096088858
9.584,0.07860057913469225
9.588000000000001,0.07859742982356904
9.592,0.0786005310536064
9.596,0.07859569890447843
9.6,0.07858516914667717
9.604000000000001,0.07856572034745062
9.608,0.078575889497108
9.612,0.07861524386587666
9.616,0.07861000302751896
9.620000000000001,0.07859940114808892
9.624,0.07859456899896093
9.628,0.07858718855228289
9.632,0.07858778956585602
9.636000000000001,0.07858584228187906
9.64,0.07859045806612072
9.644,0.07858290933564219
9.648,0.07856362882021613
9.652000000000001,0.07856156133352456
9.656,0.07857528848353487
9.66,0.07857394221313106
9.664,0.07856896582074553
9.668000000000001,0.07856456640139022
9.672,0.07855735423851264
9.676,0.07854687256179721
9.68,0.07853475612816288
9.684000000000001,0.07853035670880756
9.688,0.07853237611441329
9.692,0.07853441956056192
9.696,0.07854088646660883
9.700000000000001,0.07854420406153251
9.704,0.07854160768289659
9.708,0.07854184808832583
9.712,0.07854011716923522
9.716000000000001,0.0785274478031136
9.72,0.07851739885617084
9.724,0.07850739799031393
9.728,0.07849811834074479
9.732,0.07848020813626547
9.736,0.07847340466261761
9.74,0.07846333167513192
9.744,0.07847352486533224
9.748,0.07849631530002539
9.752,0.07850506605765019
9.756,0.07850458524679167
9.76,0.07850020986797927
9.764,0.07849629125948246
9.768,0.07849198800229884
9.772,0.07848165056884097
9.776,0.0784838622987901
9.78,0.07849439205659137
9.784,0.07849129082655401
9.788,0.07848775686674399
9.792,0.07848879061008977
9.796,0.07847633760885449
9.8,0.0784730200139308
9.804,0.07848095339309615
9.808,0.07847174586515576
9.812,0.07845688880962795
9.816,0.07844171922704211
9.82,0.07844070952423925
9.824,0.0784383775915755
9.828,0.07843224725312956
9.832,0.07843150199629888
9.836,0.07844222407844355
9.84,0.07845030170086643
9.844,0.07845015745760889
9.848,0.07844816209254608
9.852,0.07842912198254928
9.856,0.07844626288965499
9.86,0.07847741943328614
9.864,0.07847869358206117
9.868,0.07848116975798247
9.872,0.0784774915549149
9.876,0.07847109677049678
9.88,0.07846878887837597
9.884,0.07846785129720188
9.888,0.07847227475710013
9.892,0.07847013514877978
9.896,0.07846979858117882
9.9,0.07846852443240378
9.904,0.07846643290516929
9.908,0.07847441436542048
9.912,0.07848198713644193
9.916,0.07848165056884097
9.92,0.07847857337934654
9.924,0.07847232283818598
9.928,0.0784866269612265
9.932,0.07851480247753491
9.936,0.07854158364235365
9.94,0.07855079117029404
9.944,0.07854788226460008
9.948,0.07853764099331391
9.952,0.07851143680152538
9.956,0.07849335831324558
9.96,0.07848141016341173
9.964,0.07846732240525751
9.968,0.07847982348757866
9.972,0.07853117408726702
9.976,0.07854677639962551
9.98,0.07855535887344983
9.984,0.07855055076486478
9.988,0.07854357900741646
9.992,0.07853982868272011
9.996,0.07852660638411121
10.0,0.07852401000547529
10.004,0.07852778437071456
10.008000000000001,0.07852465910013427
10.012,0.0785201154375214
10.016,0.07851646127499676
10.02,0.07851025881492205
10.024000000000001,0.0785014599762114
10.028,0.07849581044862396
10.032,0.07848393442041887
10.036,0.07849126678601108
10.040000000000001,0.07849540175939422
10.044,0.07849710863794192
10.048,0.07848818959651664
10.052,0.07848088127146736
10.056000000000001,0.07847580871691014
10.06,0.07847624144668279
10.064,0.07847573659528136
10.068,0.0784770107440564
10.072000000000001,0.07847140929755482
10.076,0.07846571168888153
10.08,0.07846821190534575
10.084,0.07846184116147056
10.088000000000001,0.07846227389124322
10.092,0.07847374123021857
10.096,0.07848249198784336
10.1,0.07846299510753098
10.104000000000001,0.07847612124396816
10.108,0.07848561725842365
10.112,0.07848133804178295
10.116,0.07848530473136561
10.120000000000001,0.07848917525877658
10.124,0.07849494498907865
10.128,0.07849900784083301
10.132,0.07847794832523049
10.136000000000001,0.07845354717416135
10.14,0.07843792082125993
10.144,0.0784264775228275
10.148,0.07843130967195548
10.152000000000001,0.0784273429823728
10.156,0.07843248765855881
10.16,0.07843337715864705
10.164,0.0784221983061868
10.168000000000001,0.07841681322457154
10.172,0.07843118946924085
10.176,0.07843445898307869
10.18,0.078431141388155
10.184000000000001,0.07842231850890143
10.188,0.0784216213331566
10.192,0.07842965087449363
10.196,0.07843395413167725
10.200000000000001,0.07843126159086962
10.204,0.07842837672571859
10.208,0.07841674110294276
10.212,0.07837647319354293
10.216000000000001,0.07840015312832434
10.22,0.07843419453710651
10.224,0.07843679091574243
10.228,0.07845099887661126
10.232000000000001,0.07845652820148408
10.236,0.07845494152565101
10.24,0.07846436541847772
10.244,0.07846438945902064
10.248,0.07845196049832828
10.252,0.07843558888859617
10.256,0.07843457918579332
10.26,0.07844804188983145
10.264,0.07844640713291254
10.268,0.07843760829420189
10.272,0.07844128649726946
10.276,0.0784406614431534
10.28,0.07842770359051669
10.284,0.0784237128603911
10.288,0.0784286652122337
10.292,0.0784260928741407
10.296,0.07841688534620032
10.3,0.07841395239996343
10.304,0.0784075335750024
10.308,0.07840952894006518
10.312,0.07841265421064547
10.316,0.07840628346677028
10.32,0.07840157152035693
10.324,0.07839137833015661
10.328,0.07840539396668204
10.332,0.07842037122492448
10.336,0.07841376007562004
10.34,0.07840260526370271
10.344,0.07839205146535852
10.348,0.07838705103243007
10.352,0.07839960019583705
10.356,0.07840347072324802
10.36,0.07840053777701114
10.364,0.07838539223496822
10.368,0.07838532011333944
10.372,0.07840063393918284
10.376,0.0784128705755318
10.38,0.07842017890058108
10.384,0.07842205406292925
10.388,0.07841582756231161
10.392,0.0784008743446121
10.396,0.07840109070949842
10.4,0.07840866348051988
10.404,0.07840512952070987
10.408,0.07839801352000399
10.412,0.07838801265414708
10.416,0.07838786841088953
10.42,0.0783927005600175
10.424,0.07839159469504293
10.428,0.07838919064075041
10.432,0.0783927005600175
10.436,0.07838532011333944
10.44,0.07839447956019398
10.444,0.07839940787149365
10.448,0.07839339773576233
10.452,0.07838818093794755
10.456,0.07838584900528381
10.46,0.07834877848809303
10.464,0.07835822642146266
10.468,0.07835488478599605
10.472,0.0783441867443943
10.476,0.07834401846059383
10.48,0.07834387421733628
10.484,0.07835365871830685
10.488,0.07836909274686488
10.492,0.0783648375707671
10.496,0.07834899485297936
10.5,0.07833454648668127
10.504,0.07833197414858827
10.508000000000001,0.0783206750934134
10.512,0.07829687495591739
10.516,0.07829504787465506
10.52,0.07829848567229337
10.524000000000001,0.0782914658337592
10.528,0.07828276315722026
10.532,0.07830019255084107
10.536,0.078312116660132
10.540000000000001,0.07830976068692533
10.544,0.07831060210592772
10.548,0.07830504874051197
10.552,0.07830185134830292
10.556000000000001,0.07830026467246985
10.56,0.07830141861853027
10.564,0.0782972596046042
10.568,0.07828894157675205
10.572000000000001,0.07826314607419324
10.576,0.07827283441299213
10.58,0.0782726180481058
10.584,0.07826641558803107
10.588000000000001,0.0782611987902163
10.592,0.07825038054589993
10.596,0.07824941892418291
10.6,0.0782573042222624
10.604000000000001,0.0782578811952926
10.608,0.07825711189791901
10.612,0.07825018822155652
10.616,0.07824708699151917
10.620000000000001,0.0782541549111392
10.624,0.07825747250606288
10.628,0.07824956316744047
10.632,0.0782520633839047
10.636000000000001,0.07825006801884189
10.64,0.07824066816655811
10.644,0.0782409326125303
10.648,0.07823138851698896
10.652000000000001,0.0782200894618141
10.656,0.07821443993422666
10.66,0.0782064825145184
10.664,0.07820256390602158
10.668000000000001,0.07819426991871237
10.672,0.07819907802729742
10.676,0.07819674609463366
10.68,0.07819701054060585
10.684000000000001,0.07819138505356132
10.688,0.07819886166241109
10.692,0.07820797302817976
10.696,0.07821605065060265
10.700000000000001,0.07821605065060265
10.704,0.07821564196137293
10.708,0.07820566513605894
10.712,0.0782155217586583
10.716000000000001,0.07820972798781331
10.72,0.07821345427196673
10.724,0.07821239648807801
10.728,0.07819902994621157
10.732000000000001,0.0781838363230828
10.736,0.07816986876764322
10.74,0.07816503661851525
10.744,0.07815897840169808
10.748000000000001,0.07815340099573942
10.752,0.07814597246797551
10.756,0.07814727065729347
10.76,0.07813847181858283
10.764,0.07813003358801605
10.768,0.07813246168285151
10.772,0.0781366447373205
10.776,0.07813630816971956
10.78,0.0781311154124477
10.784,0.07812262910079508
10.788,0.07812044141138888
10.792,0.07812210020885073
10.796,0.07811844604632608
10.8,0.07812032120867425
10.804,0.07811801331655342
10.808,0.0781061853694342
10.812,0.07810755568038094
10.816,0.07811015205901686
10.82,0.07810957508598666
10.824,0.07811724401917981
10.828,0.0781171238164652
10.832,0.07811546501900335
10.836,0.07811524865411702
10.84,0.07811815755981098
10.844,0.07812500911454467
10.848,0.07814426558942782
10.852,0.0781609978073038
10.856,0.07816412307788408
10.86,0.07815066037384594
10.864,0.07808954931372991
10.868,0.07807853874507015
10.872,0.07807067748753359
10.876,0.07806461927071642
10.88,0.07805937843235872
10.884,0.07805351253988495
10.888,0.07805988328376014
10.892,0.07807264881205346
10.896,0.07807445185277286
10.9,0.07807844258289845
10.904,0.07808017350198906
10.908,0.07809159275987856
10.912,0.07810462273414405
10.916,0.07809991078773071
10.92,0.07809575177380464
10.924,0.07809334771951211
10.928,0.07808243331302404
10.932,0.07807091789296283
10.936,0.07806731181152404
10.94,0.07806320087868383
10.944,0.07805697437806619
10.948,0.07803997771421803
10.952,0.07802223579353917
10.956,0.07803033745650499
10.96,0.07806235945968144
10.964,0.07807127850110672
10.968,0.0780680330278118
10.972,0.07806603766274901
10.976,0.07803964114661707
10.98,0.07804173267385156
10.984,0.07806180652719416
10.988,0.07805702245915204
10.992,0.07805154121536508
10.996,0.07804392036325776
11.0,0.07803550617323392
11.004,0.07804235772796762
11.008000000000001,0.07803680436255189
11.012,0.07802552934791994
11.016,0.07801992790141836
11.02,0.07800564781892075
11.024000000000001,0.07800136860228005
11.028,0.07799987808861869
11.032,0.0779950459394907
11.036,0.0779985558587578
11.040000000000001,0.07799413239885955
11.044,0.07796819265304318
11.048,0.07797771270804159
11.052,0.07797980423527609
11.056000000000001,0.07798230445174031
11.06,0.07797893877573078
11.064,0.07797804927564254
11.068,0.07798535760069182
11.072000000000001,0.07799819525061391
11.076,0.07800305144028481
11.08,0.07800067142653522
11.084,0.0780144466576314
11.088000000000001,0.07801598525237861
11.092,0.07801144158976574
11.096,0.07800658540009484
11.1,0.07799682493966717
11.104000000000001,0.0779903820741632
11.108,0.07797951574876098
11.112,0.07796458657160439
11.116,0.07796663001775304
11.120000000000001,0.07795328751642952
11.124,0.07793821409601538
11.128,0.07792213097279838
11.132,0.07790364379528886
11.136000000000001,0.07789900397050428
11.14,0.07789522960526502
11.144,0.07789147928056867
11.148,0.07789590274046693
11.152000000000001,0.07790624017392478
11.156,0.07790294661954403
11.16,0.07789638355132543
11.164,0.07789542192960841
11.168000000000001,0.07790874039038902
11.172,0.07791027898513622
11.176,0.07790621613338186
11.18,0.07789871548398918
11.184000000000001,0.07789787406498679
11.188,0.07789583061883815
11.192,0.07787695879264181
11.196,0.07786231810200032
11.200000000000001,0.0778496246953358
11.204,0.07784390304611957
11.208,0.07784637922204088
11.212,0.07784964873587871
11.216000000000001,0.0778532548173175
11.22,0.07785683685821337
11.224,0.07783500804523723
11.228,0.07785450492554961
11.232000000000001,0.07786368841294707
11.236,0.07786017849367997
11.24,0.07785541846618077
11.244,0.0778422202081148
11.248000000000001,0.07783128176108381
11.252,0.0778228916116029
11.256,0.07781789117867444
11.26,0.0778221463547722
11.264,0.07782592072001147
11.268,0.07781505439460926
11.272,0.07781789117867444
11.276,0.07781976634102261
11.28,0.07781498227298049
11.284,0.07780752970467365
11.288,0.07781168871859973
11.292,0.07781082325905442
11.296,0.07780599110992643
11.3,0.07779810581184694
11.304,0.07779974056876587
11.308,0.07779911551464981
11.312,0.07778940313530801
11.316,0.07778868191902025
11.32,0.0777900762705099
11.324,0.07778524412138194
11.328,0.07778457098618002
11.332,0.07779159082471421
11.336,0.07777858489099164
11.34,0.07779613448732708
11.344,0.07780712101544392
11.348,0.07781430913777858
11.352,0.07781349175931912
11.356,0.07780995779950911
11.36,0.07779257648697414
11.364,0.07778805686490418
11.368,0.07778495563486683
11.372,0.07777783963416095
11.376,0.07778151783722852
11.38,0.07777158909300039
11.384,0.0777752192149821
11.388,0.0777803638911681
11.392,0.07777615679615618
11.396,0.07777329597154808
11.4,0.07778050813442566
11.404,0.07778668655395744
11.408,0.07778747989187398
11.412,0.07778074853985491
11.416,0.07777363253914903
11.42,0.07777057939019752
11.424,0.07777692609352979
11.428,0.07777538749878257
11.432,0.07777163717408624
11.436,0.07777146889028576
11.44,0.07777180545788671
11.444,0.07776526643021103
11.448,0.07774165861705844
11.452,0.07774786107713315
11.456,0.07775884760525
11.46,0.07775452030752344
11.464,0.07774661096890104
11.468,0.0777424759955179
11.472,0.07774057679262679
11.476,0.07774435115786606
11.48,0.0777554338481546
11.484,0.07775226049648848
11.488,0.07775016896925398
11.492,0.07775226049648848
11.496,0.07775560213195508
11.5,0.07775358272634936
11.504,0.07775199605051629
11.508000000000001,0.07775591465901312
11.512,0.07775425586155127
11.516,0.07774865441504969
11.52,0.07774983240165302
11.524000000000001,0.0777500968476252
11.528,0.0777560829428136
11.532,0.07777029090368243
11.536,0.07778555664843996
11.540000000000001,0.07779611044678415
11.544,0.077784258459122
11.548,0.07775884760525
11.552,0.07774927946916574
11.556000000000001,0.07774509641469675
11.56,0.07772216173674604
11.564,0.07772711408858865
11.568,0.07774093740077068
11.572000000000001,0.07773059996731281
11.576,0.0777258399398136
11.58,0.07773903819787958
11.584,0.0777460099553279
11.588000000000001,0.07774947179350915
11.592,0.07774052871154094
11.596,0.07773680242738752
11.6,0.07774043254936924
11.604000000000001,0.07773728323824604
11.608,0.07773680242738752
11.612,0.07773903819787958
11.616,0.07773728323824604
11.620000000000001,0.07773064804839866
11.624,0.07771949323648134
11.628,0.07770511699181203
11.632,0.07769696724776037
11.636000000000001,0.07769663068015942
11.64,0.07769658259907357
11.644,0.0776951882475839
11.648,0.07768182170571745
11.652000000000001,0.07767172467768885
11.656,0.0776961498693009
11.66,0.07768518738172699
11.664,0.07767691743496069
11.668000000000001,0.07766951294773972
11.672,0.07765859854125165
11.676,0.07766975335316897
11.68,0.07766871960982319
11.684000000000001,0.07766631555553066
11.688,0.07766694060964671
11.692,0.07767232569126198
11.696,0.0776732151913502
11.700000000000001,0.07768295161123494
11.704,0.07769117347691538
11.708,0.07769754422079057
11.712,0.07769196681483191
11.716000000000001,0.07768230251657596
11.72,0.07768189382734622
11.724,0.0776837689896944
11.728,0.07768316797612126
11.732000000000001,0.07768069180019996
11.736,0.07767581156998614
11.74,0.0776651135283844
11.744,0.07767638854301634
11.748000000000001,0.07768398535458072
11.752,0.07767994654336928
11.756,0.07768225443549011
11.76,0.07769247166623335
11.764000000000001,0.07770566992429931
11.768,0.07770646326221585
11.772,0.07770872307325082
11.776,0.07772194537185971
11.78,0.07772853248062124
11.784,0.07771028570854097
11.788,0.07769040417954177
11.792,0.07769574118007118
11.796,0.07768713466570393
11.8,0.07767561924564273
11.804,0.07765778116279219
11.808,0.07764398189115308
11.812,0.07764376552626676
11.816,0.07763523113352828
11.82,0.07763347617389475
11.824,0.07762273005120715
11.828,0.07761198392851956
11.832,0.07761864315890986
11.836,0.07762436480812607
11.84,0.07762580724070159
11.844,0.0776314327277461
11.848,0.07763967863396946
11.852,0.0776453281615569
11.856,0.07766251714974846
11.86,0.07767706167821825
11.864,0.0776802590704273
11.868,0.07768626920615862
11.872,0.07768028311097024
11.876,0.0776613151226022
11.88,0.07764701099956167
11.884,0.0776451358372135
11.888,0.07764648210761732
11.892,0.0776451358372135
11.896,0.07763753902564911
11.9,0.07763357233606645
11.904,0.07765460781112606
11.908,0.0776521797162906
11.912,0.07765580983827232
11.916,0.07764984778362685
11.92,0.07763840448519442
11.924,0.07764383764789554
11.928,0.07764905444571031
11.932,0.07764400593169601
11.936,0.0776280189706507
11.94,0.07761549384778665
11.944,0.07761818638859427
11.948,0.07762330702423736
11.952,0.07762193671329062
11.956,0.0776293412005116
11.96,0.07762412440269682
11.964,0.07761592657755931
11.968,0.07762063852397266
11.972,0.07761787386153625
11.976,0.07761486879367059
11.98,0.07761162332037569
11.984,0.07759921840022625
11.988,0.07758602014216026
11.992,0.07758902521002592
11.996,0.07758969834522783
12.0,0.07758702984496312
12.004,0.07759299189960858
12.008000000000001,0.0775921504806062
12.012,0.07758027445240112
12.016,0.07760438711695518
12.02,0.07761804214533673
12.024000000000001,0.07763335597118012
12.028,0.07763926994473974
12.032,0.07763655336338918
12.036,0.07764148167468886
12.040000000000001,0.07764624170218806
12.044,0.07764838131050841
12.048,0.07764792454019283
12.052,0.07763650528230333
12.056000000000001,0.07763119232231684
12.06,0.07763378870095278
12.064,0.07762684098404737
12.068,0.0776182104291372
12.072000000000001,0.07762135974026041
12.076,0.07761263302317854
12.08,0.0776084980497954
12.084,0.07761486879367059
12.088000000000001,0.07761958074008395
12.092,0.07761645546950366
12.096,0.07760638248201797
12.1,0.0775965979810474
12.104000000000001,0.07760844996870955
12.108,0.0776081134011086
12.112,0.07761304171240828
12.116,0.07762027791582878
12.120000000000001,0.07762373975401002
12.124,0.07761436394226916
12.128,0.0776268650245903
12.132,0.07762712947056248
12.136000000000001,0.07763395698475326
12.14,0.07762746603816344
12.144,0.0776095558336841
12.148,0.07761955669954101
12.152000000000001,0.07762364359183832
12.156,0.07761671991547583
12.16,0.07761114250951717
12.164,0.07760806532002275
12.168000000000001,0.0776017426572334
12.172,0.07760457944129857
12.176,0.07759688646756249
12.18,0.07759753556222147
12.184000000000001,0.07759703071082005
12.188,0.07760332933306646
12.192,0.07761378696923896
12.196,0.07762794684902194
12.200000000000001,0.07765080940534386
12.204,0.07766939274502509
12.208,0.07767335943460776
12.212,0.0776614112847739
12.216000000000001,0.07765294901366421
12.22,0.07764544836427152
12.224,0.07764489543178425
12.228,0.07764119318817375
12.232000000000001,0.07762325894315152
12.236,0.07761371484761018
12.24,0.07762184055111893
12.244,0.07762806705173657
12.248000000000001,0.07763215394403386
12.252,0.0776366735661038
12.256,0.07761131079331765
12.26,0.07760030022465789
12.264000000000001,0.07761628718570318
12.268,0.07761328211783752
12.272,0.0776231627809798
12.276,0.07762700926784785
12.280000000000001,0.07762193671329062
12.284,0.07763217798457678
12.288,0.07763169717371828
12.292,0.07763364445769522
12.296,0.07763499072809904
12.3,0.07762436480812607
12.304,0.07761967690225564
12.308,0.07762965372756964
12.312,0.0776332357684655
12.316,0.07763951035016899
12.32,0.07764078449894403
12.324,0.07762792280847901
12.328,0.07762717755164833
12.332,0.07762333106478028
12.336,0.07761768153719285
12.34,0.0776090750228256
12.344,0.07759359291318171
12.348,0.07759303998069443
12.352,0.07759472281869922
12.356,0.07759772788656488
12.36,0.07761828255076599
12.364,0.07762837957879459
12.368,0.07762398015943926
12.372,0.07762330702423736
12.376,0.07763621679578822
12.38,0.07762061448342973
12.384,0.07761902780759666
12.388,0.0776190518481396
12.392,0.07760542086030096
12.396,0.07760126184637489
12.4,0.07758856843971033
12.404,0.0775791205063407
12.408,0.0775743604788415
12.412,0.07756698003216345
12.416,0.07756205172086378
12.42,0.07756022463960145
12.424,0.07755839755833913
12.428,0.07756193151814915
12.432,0.07756866287016823
12.436,0.07756847054582482
12.44,0.07756856670799651
12.444,0.07757157177586217
12.448,0.07757609139793213
12.452,0.07756948024862768
12.456,0.07756053716665948
12.46,0.07755426258495599
12.464,0.0775531326794385
12.468,0.07754745911130814
12.472,0.07754503101647268
12.476,0.07753769865088048
12.48,0.07752808243371037
12.484,0.07752471675770084
12.488,0.07752589474430417
12.492,0.07752805839316745
12.496,0.07752168764929225
12.5,0.07751034051303153
12.504,0.07748586724033361
12.508000000000001,0.0774896656461158
12.512,0.07750180612029306
12.516,0.07750812878308241
12.52,0.07751017222923105
12.524000000000001,0.07750702291810785
12.528,0.07750985970217303
12.532,0.07751248012135188
12.536,0.07750548432336063
12.540000000000001,0.07749620467379148
12.544,0.077493464051898
12.548,0.07749675760627876
12.552,0.07750286390418178
12.556000000000001,0.07750685463430737
12.56,0.07751084536443296
12.564,0.07752142320332008
12.568,0.07753226548817937
12.572000000000001,0.077528202636425
12.576,0.07752914021759909
12.58,0.07752957294737174
12.584,0.07753022204203072
12.588000000000001,0.07752474079824376
12.592,0.0775125041618948
12.596,0.07750416209349974
12.6,0.07750043580934632
12.604000000000001,0.07748839149734077
12.608,0.07748084276686223
12.612,0.0774752894014465
12.616,0.07744309911446957
12.620000000000001,0.0774450223579036
12.624,0.07745836485922711
12.628,0.07746475964364523
12.632,0.0774674762249958
12.636000000000001,0.07746512025178912
12.64,0.07746122568383522
12.644,0.07746963987385906
12.648,0.07747127463077798
12.652000000000001,0.07747314979312615
12.656,0.07746961583331613
12.66,0.07745545595353316
12.664,0.07745122481797831
12.668000000000001,0.07744980642594572
12.672,0.07745163350720805
12.676,0.07745793212945445
12.68,0.07746194690012298
12.684000000000001,0.07744858035825652
12.688,0.07744718600676687
12.692,0.07744778702034
12.696,0.07744896500694333
12.700000000000001,0.07746766854933919
12.704,0.07746846188725573
12.708,0.07746122568383522
12.712,0.07746500004907449
12.716000000000001,0.07745668202122234
12.72,0.07745019107463252
12.724,0.07744357992532808
12.728,0.0774164862334513
12.732000000000001,0.07741239934115401
12.736,0.07742028463923349
12.74,0.07741348116558565
12.744,0.0774085768948289
12.748000000000001,0.07740497081339011
12.752,0.07739542671784877
12.756,0.0773955469205634
12.76,0.07738862324420093
12.764000000000001,0.07738597878447914
12.768,0.07739477762318979
12.772,0.07738665191968105
12.776,0.0773865076764235
12.780000000000001,0.07740689405682412
12.784,0.07741509188196163
12.788,0.07741413026024463
12.792,0.07740619688107929
12.796000000000001,0.07739872027222953
12.8,0.07740807204342746
12.804,0.07741937109860234
12.808,0.07741175024649502
12.812,0.07740595647565005
12.816,0.07740759123256896
12.82,0.07740374474570091
12.824,0.07739766248834082
12.828,0.07739016183894815
12.832,0.07738256502738376
12.836,0.0773795599595181
12.84,0.0773743191211604
12.844,0.07737193910741079
12.848,0.07737631448622319
12.852,0.07738439210864607
12.856,0.0773914600282661
12.86,0.07738694040619616
12.864,0.0773684291881437
12.868,0.07737107364786548
12.872,0.07735496648410556
12.876,0.07734544642910715
12.88,0.07733203180615486
12.884,0.07732806511657218
12.888,0.07732909885991797
12.892,0.07733917184740366
12.896,0.07734357126675898
12.9,0.07735655315993863
12.904,0.0773523460649267
12.908,0.07734434056413259
12.912,0.07735208161895453
12.916,0.07735450971378997
12.92,0.07734830725371526
12.924,0.07734157590169619
12.928,0.07733772941482814
12.932,0.07732823340037266
12.936,0.07732897865720334
12.94,0.07731349654755948
12.944,0.07730282254650066
12.948,0.07728375839596092
12.952,0.07726986296215012
12.956,0.07727361328684647
12.96,0.07726248251547206
12.964,0.07725498186607939
12.968,0.07726356433990371
12.972,0.07725969381249273
12.976,0.07723469164785046
12.98,0.07725551075802374
12.984,0.07726370858316126
12.988,0.07725260185232978
12.992,0.07725274609558734
12.996,0.07725587136616761
13.0,0.07725214508201421
13.004,0.07725313074427415
13.008000000000001,0.07725106325758256
13.012,0.07724363472981866
13.016,0.07723998056729402
13.02,0.0772315904178131
13.024000000000001,0.07721668528119945
13.028,0.07721805559214619
13.032,0.07722094045729722
13.036,0.07721875276789102
13.040000000000001,0.07720468905027973
13.044,0.07718824531891885
13.048,0.07718709137285844
13.052,0.07718735581883061
13.056000000000001,0.07718307660218993
13.06,0.07719019260289581
13.064,0.0771951449547384
13.068,0.0771909619002694
13.072000000000001,0.0771879087513179
13.076,0.07717874930446338
13.08,0.07717403735805002
13.084,0.0771676425736319
13.088000000000001,0.07713227893498883
13.092,0.0771338656108219
13.096,0.07713439450276627
13.1,0.07711831137954926
13.104000000000001,0.07711126750047216
13.108,0.07709665085037361
13.112,0.07708561624117091
13.116,0.07708439017348172
13.120000000000001,0.07708453441673926
13.124,0.07708121682181558
13.128,0.0770739084967663
13.132,0.07707804347014945
13.136000000000001,0.07709020798486962
13.14,0.07710492079713989
13.144,0.07710417554030921
13.148,0.07711439277105245
13.152000000000001,0.07712321565030601
13.156,0.07712417727202303
13.16,0.0771237685827933
13.164,0.07711874410932192
13.168000000000001,0.07711744592000395
13.172,0.07711934512289505
13.176,0.07712372050170745
13.18,0.07712360029899282
13.184000000000001,0.07712311948813431
13.188,0.07710802202717724
13.192,0.07709463144476789
13.196,0.07707696164571781
13.200000000000001,0.07707174484790302
13.204,0.0770854239168275
13.208,0.07709508821508346
13.212,0.07709811732349205
13.216000000000001,0.07708878959283703
13.22,0.07708362087610811
13.224,0.07705842638712243
13.228,0.07707318728047854
13.232000000000001,0.0770881885792639
13.236,0.0770915061741876
13.24,0.07709174657961684
13.244,0.07707888488915184
13.248000000000001,0.07706926867198173
13.252,0.07707128807758745
13.256,0.07707359596970828
13.26,0.07707263434799126
13.264000000000001,0.07707316323993561
13.268,0.07707698568626073
13.272,0.07709059263355643
13.276,0.07709340537707869
13.280000000000001,0.0771012185535294
13.284,0.07710585837831398
13.288,0.07711097901395705
13.292,0.07711924896072335
13.296000000000001,0.07712886517789345
13.3,0.07712150877175833
13.304,0.0771148255008251
13.308,0.07710679595948806
13.312000000000001,0.07709342941762162
13.316,0.07708080813258586
13.32,0.07706650400954532
13.324,0.07706568663108586
13.328,0.07706859553677982
13.332,0.07707051878021384
13.336,0.07705417121102466
13.34,0.07707049473967091
13.344,0.07707770690254849
13.348,0.07707888488915184
13.352,0.0770736200102512
13.356,0.07705777729246345
13.36,0.0770534499947369
13.364,0.07705179119727507
13.368,0.07705212776487601
13.372,0.07703967476364072
13.376,0.07703993920961291
13.38,0.07704989199438396
13.384,0.07704695904814708
13.388,0.07704378569648095
13.392,0.07705008431872737
13.396,0.07704061234481481
13.4,0.07703772747966378
13.404,0.07703541958754295
13.408,0.07703972284472657
13.412,0.07704712733194756
13.416,0.07704474731819796
13.42,0.07703921799332515
13.424,0.07703866506083787
13.428,0.07703616484437364
13.432,0.077025755289287
13.436,0.07702549084331482
13.44,0.07703510706048493
13.444,0.07703356846573771
13.448,0.07700904711195394
13.452,0.07701212430144838
13.456,0.07701599482885935
13.46,0.07700649881440387
13.464,0.07701051358507238
13.468,0.07702049041038636
13.472,0.0770130138015366
13.476,0.07700387839522502
13.48,0.07700219555722024
13.484,0.07700080120573058
13.488,0.07700147434093249
13.492,0.07699584885388797
13.496,0.07699676239451914
13.5,0.07699678643506205
13.504,0.07699721916483471
13.508000000000001,0.07700532082780052
13.512,0.07701659584243248
13.516,0.07702765449217809
13.52,0.07703453008745473
13.524000000000001,0.0770110905581026
13.528,0.07698354009591024
13.532,0.07698462192034188
13.536,0.0769931082319945
13.540000000000001,0.07699116094801754
13.544,0.07698899729915427
13.548,0.07699113690747462
13.552,0.07699717108374886
13.556000000000001,0.07699293994819402
13.56,0.07697952532524172
13.564,0.07697760208180769
13.568,0.07697156790553346
13.572000000000001,0.07695832156638163
13.576,0.07695745610683632
13.58,0.07694846494378228
13.584,0.07694846494378228
13.588000000000001,0.07695897066104061
13.592,0.07695973995841422
13.596,0.0769783713791813
13.6,0.07697899643329736
13.604000000000001,0.07695380194431169
13.608,0.07694666190306289
13.612,0.07695822540420993
13.616,0.07696901960798339
13.620000000000001,0.0769736113516821
13.624,0.07697695298714871
13.628,0.07697685682497701
13.632,0.07697868390623934
13.636000000000001,0.07697507782480055
13.64,0.0769676973781225
13.644,0.07695360961996829
13.648,0.07693978630778626
13.652000000000001,0.0769330789963101
13.656,0.07693846407792537
13.66,0.07693988246995796
13.664,0.0769311557528761
13.668000000000001,0.07691444757554303
13.672,0.07690247538516624
13.676,0.07690992795347308
13.68,0.07690961542641506
13.684000000000001,0.07689603251966227
13.688,0.07687792999083956
13.692,0.0768746364364588
13.696,0.07685408177225769
13.700000000000001,0.07687547785546119
13.704,0.07688627205923462
13.708,0.07688648842412095
13.712,0.0768852142753459
13.716000000000001,0.07687607886903432
13.72,0.07687393926071397
13.724,0.07687814635572589
13.728,0.07687547785546119
13.732000000000001,0.07687350653094131
13.736,0.07686922731430061
13.74,0.07686639053023543
13.744,0.07686792912498265
13.748000000000001,0.07686917923321476
13.752,0.07686384223268536
13.756,0.07684778315001127
13.76,0.0768339117567434
13.764000000000001,0.07684881689335707
13.768,0.07684905729878631
13.772,0.07683958532487375
13.776,0.07684821587978394
13.780000000000001,0.07684862456901366
13.784,0.07683309437828394
13.788,0.07682780545884038
13.792,0.07681636216040796
13.796000000000001,0.07680398128080144
13.8,0.07679376405005821
13.804,0.07678133508936585
13.808,0.07675087572147954
13.812000000000001,0.07676116507385156
13.816,0.0767697715882188
13.82,0.07677116593970847
13.824,0.07676630975003756
13.828,0.07675743878969814
13.832,0.07675445776237541
13.836,0.07674775045089925
13.84,0.07674128354485237
13.844,0.07673248470614172
13.848,0.07672950367881898
13.852,0.07672604184063775
13.856,0.07672678709746843
13.86,0.07672871034090245
13.864,0.07674068253127923
13.868,0.07675974668181897
13.872,0.0767563569652665
13.876,0.0767548424110622
13.88,0.07676926673681736
13.884,0.07678042154873468
13.888,0.07678438823831736
13.892,0.07677816173769972
13.896,0.07677393060214487
13.9,0.07676780026369892
13.904,0.07675638100580942
13.908,0.07674573104529353
13.912,0.07673474451717668
13.916,0.07671940665079037
13.92,0.07671337247451612
13.924,0.0767177238127856
13.928,0.07671784401550023
13.932,0.07672149817802487
13.936,0.07672029615087861
13.94,0.07670120795979594
13.944,0.07668856263421726
13.948,0.07671875755613139
13.952,0.07672885458416
13.956,0.07673116247628083
13.96,0.07673774958504234
13.964,0.0767363792740956
13.968,0.07674012959879195
13.972,0.07673815827427208
13.976,0.07673534553074982
13.98,0.07674830338338653
13.984,0.07674830338338653
13.988,0.07674529831552088
13.992,0.07674200476114011
13.996,0.0767384708013301
14.0,0.07673878332838813
14.004,0.07674580316692231
14.008000000000001,0.07674087485562263
14.012,0.07673556189563614
14.016,0.07674525023443503
14.02,0.07674734176166953
14.024000000000001,0.07674315870720053
14.028,0.07674176435571087
14.032,0.07673053742216476
14.036,0.07672080100228004
14.040000000000001,0.07673267703048511
14.044,0.07674195668005426
14.048,0.07674529831552088
14.052,0.07673058550325061
14.056000000000001,0.0767147668260058
14.06,0.07673423966577526
14.064,0.07673060954379354
14.068,0.07672296465114331
14.072000000000001,0.07671551208283647
14.076,0.0767058237440376
14.08,0.07670185705445492
14.084,0.07670476596014889
14.088000000000001,0.07670406878440406
14.092,0.0767027705950861
14.096,0.07670005401373553
14.1,0.07669483721592076
14.104000000000001,0.07669841925681661
14.108,0.07670767486584285
14.112,0.07670166473011153
14.116,0.07669435640506225
14.120000000000001,0.07669339478334523
14.124,0.07669255336434286
14.128,0.07669603924306702
14.132,0.07670606414946685
14.136000000000001,0.07670366009517432
14.14,0.0766953661078651
14.144,0.076687360607071
14.148,0.07670798739290087
14.152000000000001,0.07672137797531024
14.156,0.0767183007858158
14.16,0.0767105837715368
14.164,0.07671217044736986
14.168000000000001,0.07670457363580549
14.172,0.07674039404476413
14.176,0.07675486645160513
14.18,0.07674890439695967
14.184000000000001,0.07672553698923631
14.188,0.07669115901285319
14.192,0.07669276972922918
14.196,0.07669692874315524
14.200000000000001,0.0766891636477904
14.204,0.07668123026862506
14.208,0.0766704360648516
14.212,0.07665779073927292
14.216000000000001,0.07664894381947643
14.22,0.07665161231974113
14.224,0.07666880130793269
14.228,0.07666524330757975
14.232000000000001,0.07665779073927292
14.236,0.07665747821221489
14.24,0.07665875236098993
14.244,0.07665656467158373
14.248000000000001,0.0766656760373524
14.252,0.07666981101073556
14.256,0.076664522091292
14.26,0.07665868023936115
14.264000000000001,0.07664812644101697
14.268,0.07664637148138342
14.272,0.07666394511826179
14.276,0.0766694744431346
14.280000000000001,0.07666651745635479
14.284,0.07668178320111234
14.288,0.07668988486407814
14.292,0.0766796676333349
14.296000000000001,0.07667788863315844
14.3,0.07667851368727449
14.304,0.07666920999716242
14.308,0.0766700514161648
14.312000000000001,0.07667259971371489
14.316,0.07668086966048117
14.32,0.07668757697195733
14.324,0.07666981101073556
14.328000000000001,0.07668471614734922
14.332,0.07669325054008769
14.336,0.07669255336434286
14.34,0.07667721549795653
14.344,0.0766677675645869
14.348,0.07665882448261871
14.352,0.07664747734635799
14.356,0.0766354089938095
14.36,0.07662990370947961
14.364,0.07661865273539059
14.368,0.07659824231444705
14.372,0.07661978264090807
14.376,0.07664355873786116
14.38,0.07664247691342953
14.384,0.0766445444001211
14.388,0.07664240479180075
14.392,0.07663766880484447
14.396,0.07664877553567595
14.4,0.076651011306168
14.404,0.07664560218400981
14.408,0.07663863042656148
14.412,0.07662603318206865
14.416,0.07659987707136597
14.42,0.0766215135599987
14.424,0.07661576787023956
14.428,0.0766105751129677
14.432,0.07659655947644227
14.436,0.07657961089367997
14.44,0.07657963493422289
14.444,0.07658396223194944
14.448,0.07658473152932305
14.452,0.07658439496172209
14.456,0.0765919196516577
14.46,0.07659506896278091
14.464,0.07659446794920778
14.468,0.0765916311651426
14.472,0.07659564593581111
14.476,0.07658990024605197
14.48,0.07658376990760604
14.484,0.07658367374543433
14.488,0.07657730300155914
14.492,0.0765663164734423
14.496,0.07657184579831511
14.5,0.07657571632572607
14.504,0.07657360075794865
14.508000000000001,0.07656417686512194
14.512,0.07655225275583101
14.516,0.07653693892998763
14.52,0.07652979888873881
14.524000000000001,0.07651917296876586
14.528,0.0764964786962444
14.532,0.07652066348242723
14.536,0.07653641003804326
14.540000000000001,0.07653905449776505
14.544,0.07654742060670304
14.548,0.0765474927283318
14.552,0.07655682045898682
14.556000000000001,0.07655381539112116
14.56,0.07653674660564422
14.564,0.07652979888873881
14.568,0.0765246542125528
14.572000000000001,0.0765058064268994
14.576,0.07650111852102898
14.58,0.07650131084537239
14.584,0.07649719991253216
14.588000000000001,0.0764986663856506
14.592,0.07650260903469035
14.596,0.07650926826508064
14.6,0.07651474950886761
14.604000000000001,0.0765053256160409
14.608,0.07649489202041133
14.612,0.0764870548034177
14.616,0.0764858046951856
14.620000000000001,0.07647602019421501
14.624,0.07646556255804252
14.628,0.0764543115839535
14.632,0.076454792394812
14.636000000000001,0.07645332592169356
14.64,0.07643979109602664
14.644,0.07643135286545986
14.648,0.07642531868918563
14.652000000000001,0.07643563208210057
14.656,0.07643801209585016
14.66,0.07641740935056321
14.664,0.07640584584941616
14.668000000000001,0.07641541398550042
14.672,0.07642325120249405
14.676,0.07644173838000358
14.68,0.07644858993473728
14.684000000000001,0.07644171433946065
14.688,0.07643560804155763
14.692,0.07642954982474047
14.696,0.07644190666380406
14.700000000000001,0.07644885438070946
14.704,0.07644661861021741
14.708,0.07643519935232791
14.712,0.07643536763612839
14.716000000000001,0.07643476662255526
14.72,0.0764344300549543
14.724,0.07642930941931123
14.728,0.07642671304067529
14.732000000000001,0.0764324346898915
14.736,0.07643003063559897
14.74,0.07642546293244318
14.744,0.0764274823380489
14.748000000000001,0.0764258716216729
14.752,0.07641793824250757
14.756,0.07640916344433984
14.76,0.07640214360580568
14.764000000000001,0.07640591797104494
14.768,0.07640344179512364
14.772,0.0763716121162906
14.776,0.07636706845367772
14.780000000000001,0.07638204571192016
14.784,0.07637351131918169
14.788,0.0763680060348518
14.792,0.07636218822346388
14.796000000000001,0.07634838895182479
14.8,0.07635019199254418
14.804,0.0763549760605863
14.808,0.07635538474981604
14.812000000000001,0.0763584859798534
14.816,0.07635307685769521
14.82,0.07634473478930014
14.824,0.07634273942423735
14.828000000000001,0.07634276346478028
14.832,0.07633247411240826
14.836,0.07633146440960539
14.84,0.07633192117992098
14.844000000000001,0.07632756984165151
14.848,0.07632773812545199
14.852,0.07632797853088123
14.856,0.0763250936657302
14.86,0.07632607932799014
14.864,0.07634175376197741
14.868,0.0763643037912413
14.872,0.07636396722364035
14.876,0.0763449751947294
14.88,0.07632684862536375
14.884,0.07630925094794246
14.888,0.07629624501421989
14.892,0.0762861720267342
14.896,0.07628374393189875
14.9,0.07628737405388046
14.904,0.07627653176902117
14.908,0.07624475017127397
14.912,0.0762479235229401
14.916,0.07626061692960465
14.92,0.0762724689172668
14.924,0.07627133901174932
14.928,0.07627213234966584
14.932,0.07627359882278428
14.936,0.07627278144432482
14.94,0.07626023228091784
14.944,0.07625328456401244
14.948,0.07626150642969289
14.952,0.07626246805140989
14.956,0.07625830903748382
14.96,0.07625907833485743
14.964,0.07626290078118254
14.968,0.07626263633521037
14.972,0.07626237188923819
14.976,0.07627040143057523
14.98,0.07627944067471512
14.984,0.07627518549861735
14.988,0.07626023228091784
14.992,0.07625044777994726
14.996,0.07623775437328272
15.0,0.0762312634266929
15.004,0.07623359535935666
15.008000000000001,0.07624436552258716
15.012,0.07625184213143693
15.016,0.07625470295604503
15.02,0.07623333091338447
15.024000000000001,0.0762224165068964
15.028,0.07621866618220006
15.032,0.07621210311398147
15.036,0.0762198441688034
15.040000000000001,0.07621982012826048
15.044,0.07620969905968894
15.048,0.07621219927615316
15.052,0.07621393019524378
15.056000000000001,0.07620830470819927
15.06,0.07620303982929864
15.064,0.07620549196467702
15.068,0.07620563620793457
15.072000000000001,0.07621159826258003
15.076,0.07621960376337415
15.08,0.07622633511539322
15.084,0.07622292135829783
15.088000000000001,0.07621340130329943
15.092,0.07620984330294649
15.096,0.07620799218114124
15.1,0.07620234265355381
15.104000000000001,0.0762008040588066
15.108,0.07620082809934951
15.112,0.076196813328681
15.116,0.07619159653086621
15.120000000000001,0.07618029747569134
15.124,0.07617010428549104
15.128,0.0761657048661357
15.132,0.07614892456717387
15.136000000000001,0.07614178452592507
15.14,0.07616224302795446
15.144,0.07616394990650216
15.148,0.07616306040641393
15.152000000000001,0.07615986301420487
15.156,0.07614195280972555
15.16,0.07613103840323748
15.164,0.07612911515980346
15.168000000000001,0.07613339437644415
15.172,0.07613274528178517
15.176,0.07612589372705147
15.18,0.0761262062541095
15.184000000000001,0.07613291356558564
15.188,0.07613861117425894
15.192,0.07614267402601331
15.196,0.07615339610815797
15.200000000000001,0.07615253064861266
15.204,0.07614450110727562
15.208,0.07613702449842587
15.212,0.07612981233554829
15.216000000000001,0.07611497932056341
15.22,0.07612476382153398
15.224,0.07613036526803557
15.228,0.07613269720069932
15.232000000000001,0.07613546186313573
15.236,0.07614036613389248
15.24,0.07612332138895847
15.244,0.07609781437291477
15.248000000000001,0.07608841452063099
15.252,0.07611281567170013
15.256,0.07610485825199187
15.26,0.07610324753561587
15.264000000000001,0.07610495441416357
15.268,0.07609526607536468
15.272,0.07608324580390205
15.276,0.07608815007465881
15.280000000000001,0.07610218975172717
15.284,0.07611454659079074
15.288,0.07611233486084162
15.292,0.07611320032038693
15.296000000000001,0.07612606201085195
15.3,0.07613178366006816
15.304,0.07612481190261984
15.308,0.07611485911784878
15.312000000000001,0.07611310415821523
15.316,0.07611279163115721
15.32,0.07610163681923988
15.324,0.07610134833272478
15.328000000000001,0.07610420915733289
15.332,0.07610322349507295
15.336,0.07611103667152366
15.34,0.07611457063133367
15.344000000000001,0.07611733529377007
15.348,0.07611219061758408
15.352,0.07610786331985753
15.356,0.07610656513053957
15.36,0.07610572371153718
15.364,0.07611238294192747
15.368,0.07612000379403479
15.372,0.07611060394175101
15.376,0.07610343985995928
15.38,0.07608658743936866
15.384,0.07609343899410237
15.388,0.07610353602213098
15.392,0.07609759800802844
15.396,0.07609637194033925
15.4,0.07610065115697995
15.404,0.07608935210180508
15.408,0.07608920785854752
15.412,0.0760918523182693
15.416,0.07609012139917867
15.42,0.07608521712842192
15.424,0.07608346216878838
15.428,0.0760901454397216
15.432,0.07608851068280269
15.436,0.07608372661476057
15.44,0.07608235630381383
15.444,0.07608389489856103
15.448,0.07607692314111271
15.452,0.07607603364102447
15.456,0.07606129678821129
15.46,0.07606194588287027
15.464,0.07607021582963656
15.468,0.0760708168432097
15.472,0.07607170634329793
15.476,0.07608199569566994
15.48,0.07608502480407853
15.484,0.07608125043883926
15.488,0.07607103320809602
15.492,0.07604949288163498
15.496,0.0760482668139458
15.5,0.07605576746333848
15.504,0.07606146507201177
15.508000000000001,0.07605846000414611
15.512,0.07605276239547282
15.516,0.07603504451533691
15.52,0.07604305001613101
15.524000000000001,0.0760450453811938
15.528,0.07604506942173674
15.532,0.07603896312383372
15.536,0.07603297702864532
15.540000000000001,0.07603595805596806
15.544,0.07603605421813976
15.548,0.07603184712312784
15.552,0.0760286737714617
15.556000000000001,0.07603384248819064
15.56,0.07602427435210639
15.564,0.07603578977216759
15.568,0.07604035747532338
15.572000000000001,0.07603925161034883
15.576,0.07605216138189969
15.58,0.07604355486753245
15.584,0.07604305001613101
15.588000000000001,0.07604115081323992
15.592,0.07604860338154674
15.596,0.07605490200379317
15.6,0.07605870040957537
15.604000000000001,0.07607023987017948
15.608,0.07609168403446882
15.612,0.07610370430593145
15.616,0.0760957468862232
15.620000000000001,0.0760718746270984
15.624,0.0760515122872407
15.628,0.07601785552714532
15.632,0.0760254282981668
15.636000000000001,0.07603369824493308
15.64,0.07603804958320257
15.644,0.07604343466481782
15.648,0.07605858020686074
15.652000000000001,0.07606822046457376
15.656,0.07606817238348791
15.66,0.07606269113970096
15.664,0.07606665782928362
15.668000000000001,0.07606572024810954
15.672,0.07605372401718984
15.676,0.07605850808523196
15.68,0.07606096022061033
15.684000000000001,0.0760651192345364
15.688,0.07605644059854039
15.692,0.07603836211026059
15.696,0.07603273662321608
15.700000000000001,0.07602764002811592
15.704,0.07601843250017552
15.708,0.07601737471628682
15.712,0.07601886522994818
15.716000000000001,0.0760235290952757
15.72,0.07603429925850622
15.724,0.07603845827243229
15.728,0.07603949201577807
15.732000000000001,0.07603064509598158
15.736,0.07601333590507538
15.74,0.07598888667292038
15.744,0.0760067968773997
15.748000000000001,0.07601874502723356
15.752,0.07602150968966997
15.756,0.07603384248819064
15.76,0.07605035834118029
15.764000000000001,0.07604466073250701
15.768,0.07604242496201495
15.772,0.076036943718228
15.776,0.07603290490701656
15.780000000000001,0.07602927478503484
15.784,0.07602759194703007
15.788,0.07601833633800383
15.792,0.07600297443107458
15.796000000000001,0.07599730086294422
15.8,0.07599799803868905
15.804,0.07600328695813262
15.808,0.07600069057949668
15.812000000000001,0.07601427348624945
15.816,0.07601778340551654
15.82,0.07601458601330749
15.824,0.07601458601330749
15.828000000000001,0.07602275979790209
15.832,0.07603449158284963
15.836,0.07604639165159763
15.84,0.07606860511326057
15.844000000000001,0.07607627404645373
15.848,0.07607432676247679
15.852,0.07606689823471288
15.856,0.07607620192482495
15.860000000000001,0.07607661061405468
15.864,0.076070071586379
15.868,0.07606773965371526
15.872,0.07606331619381701
15.876,0.07603946797523516
15.88,0.07606326811273116
15.884,0.07606444609933449
15.888,0.0760574983824291
15.892,0.07605745030134324
15.896,0.0760558876660531
15.9,0.07605257007112942
15.904,0.07604920439511988
15.908,0.0760529306792733
15.912,0.07606761945100063
15.916,0.07606322003164531
15.92,0.07605473371999269
15.924,0.07605675312559841
15.928,0.07606146507201177
15.932,0.07607473545170651
15.936,0.07606807622131621
15.94,0.07604920439511988
15.944,0.0760537961388186
15.948,0.07606646550494021
15.952,0.076068148342945
15.956,0.07606422973444817
15.96,0.07606281134241558
15.964,0.07606620105896804
15.968,0.07608336600661668
15.972,0.07609202060206978
15.976,0.0761006030758941
15.98,0.07610882494157453
15.984,0.07610312733290124
15.988,0.07607939931703402
15.992,0.07608516904733607
15.996,0.07608800583140125
16.0,0.07609259757509998
16.004,0.07609295818324387
16.008,0.07607644233025421
16.012,0.07606858107271765
16.016000000000002,0.07608562581765166
16.02,0.07609367939953161
16.024,0.07610267056258567
16.028,0.07611473891513415
16.032,0.07611195021215482
16.036,0.07611433022590441
16.04,0.07611613326662381
16.044,0.07611997975349186
16.048000000000002,0.07612207128072636
16.052,0.07611882580743144
16.056,0.07611281567170013
16.06,0.07611610922608089
16.064,0.07612108561846642
16.068,0.07612844202460155
16.072,0.07612269633484241
16.076,0.07610836817125896
16.080000000000002,0.07611937873991872
16.084,0.07611892196960314
16.088,0.07613137497083843
16.092,0.07613702449842587
16.096,0.07612844202460155
16.1,0.07611832095603001
16.104,0.07613926026891792
16.108,0.07614274614764208
16.112000000000002,0.07614774658057054
16.116,0.07615029487812061
16.12,0.07614890052663095
16.124,0.07615005447269137
16.128,0.07615659350036703
16.132,0.0761624593928408
16.136,0.07617337379932887
16.14,0.07617572977253555
16.144000000000002,0.07617861463768658
16.148,0.07618984157123267
16.152,0.07619303896344173
16.156,0.07619609211239324
16.16,0.07619597190967861
16.164,0.07619351977430024
16.168,0.07619147632815158
16.172,0.07620349659961421
16.176000000000002,0.07621039623543377
16.18,0.07620856915417146
16.184,0.07620715076213887
16.188,0.0762073671270252
16.192,0.0762247003584743
16.196,0.07624244227915315
16.2,0.07623902852205776
16.204,0.0762406873195196
16.208000000000002,0.07625184213143693
16.212,0.07623025372389004
16.216,0.07624797160402595
16.22,0.07626710787619446
16.224,0.07627350266061259
16.228,0.07627520953916028
16.232,0.0762685743493129
16.236,0.07625963126734471
16.240000000000002,0.07626330947041228
16.244,0.0762660020112199
16.248,0.07627328629572626
16.252,0.07628751829713802
16.256,0.07628239766149493
16.26,0.07627650772847824
16.264,0.07629119650020558
16.268,0.07629961069022942
16.272000000000002,0.07630290424461018
16.276,0.07629780764951002
16.28,0.0762876865809385
16.284,0.07629605268987648
16.288,0.07631105398866185
16.292,0.07632735347676518
16.296,0.07632894015259825
16.3,0.07632418012509905
16.304000000000002,0.07632913247694165
16.308,0.07633761878859427
16.312,0.07634245093772224
16.316,0.0763500237087437
16.32,0.07635437504701317
16.324,0.07633983051854339
16.328,0.07636048134491619
16.332,0.07637072261620236
16.336000000000002,0.07636860704842494
16.34,0.07636805411593765
16.344,0.07635795708790903
16.348,0.07635038431688758
16.352,0.07634947077625642
16.356,0.07634543196504498
16.36,0.07634192204577789
16.364,0.07634692247870634
16.368000000000002,0.07634814854639553
16.372,0.07635132189806167
16.376,0.07636795795376594
16.38,0.07638990696945672
16.384,0.07640752868742093
16.388,0.07640543716018643
16.392,0.07638192550920553
16.396,0.07637983398197103
16.4,0.07637995418468566
16.404,0.07637101110271746
16.408,0.07637206888660616
16.412,0.07636759734562207
16.416,0.07636932826471268
16.42,0.07637206888660616
16.424,0.07637262181909345
16.428,0.07637538648152985
16.432,0.07637690103573415
16.436,0.07635519242547263
16.44,0.07634725904630729
16.444,0.07634245093772224
16.448,0.07634502327581524
16.452,0.07635502414167215
16.456,0.076340599815917
16.46,0.0763164390702771
16.464,0.0763454560055879
16.468,0.07634776389770873
16.472,0.07634038345103067
16.476,0.07633884485628345
16.48,0.0763436529648685
16.484,0.07635810133116659
16.488,0.07636283731812286
16.492,0.07635600980393209
16.496,0.07634886976268329
16.5,0.07632711307133593
16.504,0.07631117419137648
16.508,0.07631136651571988
16.512,0.0763114867184345
16.516000000000002,0.07631155884006328
16.52,0.0763157659350752
16.524,0.07630254363646631
16.528,0.07629869714959826
16.532,0.07629857694688363
16.536,0.07629622097367696
16.54,0.07628893668917061
16.544,0.07628230149932323
16.548000000000002,0.07627460852558715
16.552,0.07627460852558715
16.556,0.0762812196748916
16.56,0.07628028209371751
16.564,0.07627208426858
16.568,0.07627215639020878
16.572,0.07626210744326602
16.576,0.0762821812966086
16.580000000000002,0.0763017743390927
16.584,0.0763061497179051
16.588,0.07630807296133911
16.592,0.0763040581906706
16.596,0.07630723154233673
16.6,0.07631696796222147
16.604,0.07631737665145119
16.608,0.07631588613778982
16.612000000000002,0.07630773639373817
16.616,0.0763017743390927
16.62,0.07629439389241464
16.624,0.07628881648645598
16.628,0.07629018679740272
16.632,0.07628576333750448
16.636,0.07628078694511894
16.64,0.07628061866131847
16.644000000000002,0.07629052336500368
16.648,0.07629333610852593
16.652,0.07628465747252991
16.656,0.07628722981062291
16.66,0.07628790294582483
16.664,0.07627881562059907
16.668,0.0762742719579862
16.672,0.0762703773900323
16.676000000000002,0.07626924748451482
16.68,0.07626648282207842
16.684,0.076240879643863
16.688,0.07625217869903787
16.692,0.07625455871278748
16.696,0.0762472503877382
16.7,0.07623619173799258
16.704,0.07622722461548145
16.708000000000002,0.07622825835882724
16.712,0.07623830730577
16.716,0.0762320327240665
16.72,0.07622760926416826
16.724,0.07622710441276682
16.728,0.07621058855977718
16.732,0.07620109254532169
16.736,0.07620630934313648
16.740000000000002,0.07620926632991629
16.744,0.0762200364931468
16.748,0.07622102215540674
16.752,0.07621354554655699
16.756,0.07622015669586144
16.76,0.07622448399358797
16.764,0.07621671889822311
16.768,0.07621092512737812
16.772000000000002,0.07620352064015715
16.776,0.07619666908542344
16.78,0.07619118784163649
16.784,0.07618375931387258
16.788,0.07618517770590517
16.792,0.07618746155748307
16.796,0.07619029834154825
16.8,0.07618832701702838
16.804000000000002,0.07618527386807687
16.808,0.07618443244907448
16.812,0.07617916757017386
16.816,0.07617729240782568
16.82,0.07615909371683126
16.824,0.07616604143373666
16.828,0.07615082377006496
16.832,0.07613930835000376
16.836000000000002,0.07612824970025815
16.84,0.07611560437467946
16.844,0.07611887388851729
16.848,0.07611074818500856
16.852,0.07610151661652526
16.856,0.07610223783281302
16.86,0.07609791053508647
16.864,0.07609723739988455
16.868000000000002,0.07609730952151333
16.872,0.07609250141292828
16.876,0.07609430445364768
16.88,0.07608593834470968
16.884,0.0760873807772852
16.888,0.07609108302089569
16.892,0.07608427954724784
16.896,0.07607721162762782
16.9,0.07607543262745134
16.904,0.07607031199180826
16.908,0.07606081597735279
16.912,0.07605764262568665
16.916,0.07605098339529635
16.92,0.07605165653049825
16.924,0.07605446927402051
16.928,0.0760457906380245
16.932,0.07602042786523834
16.936,0.07603516471805152
16.94,0.07604042959695216
16.944,0.07604415588110558
16.948,0.07604506942173674
16.952,0.07603360208276139
16.956,0.0760394198941493
16.96,0.07604276152961591
16.964,0.0760394198941493
16.968,0.07603730432637187
16.972,0.07603872271840446
16.976,0.07604119889432577
16.98,0.07603612633976854
16.984,0.07603381844764771
16.988,0.07604067000238142
16.992,0.076037905339945
16.996,0.07602913054177729
17.0,0.07602720729834327
17.004,0.0760258129468536
17.008,0.07602715921725742
17.012,0.07602182221672801
17.016000000000002,0.07601939412189256
17.02,0.07600624394491241
17.024,0.07600323887704676
17.028,0.07601314358073197
17.032,0.07600605162056902
17.036,0.07599809420086076
17.04,0.07599153113264216
17.044,0.07596813968437588
17.048000000000002,0.07598491998333771
17.052,0.07598859818640527
17.056,0.0759746306309657
17.06,0.07597001484672405
17.064,0.07596681745451499
17.068,0.07596220167027334
17.072,0.07596960615749432
17.076,0.07597823671240449
17.080000000000002,0.07598893475400623
17.084,0.07598845394314772
17.088,0.07598912707834964
17.092,0.07600210897152927
17.096,0.07600162816067077
17.1,0.07600258978238777
17.104,0.0760157399593679
17.108,0.07601429752679238
17.112000000000002,0.07599934430909287
17.116,0.07600095502546886
17.12,0.07602062018958175
17.124,0.07606749924828601
17.128,0.07611615730716674
17.132,0.07611077222555149
17.136,0.07610444956276213
17.14,0.07609716527825579
17.144000000000002,0.07608295731738696
17.148,0.07607283624881542
17.152,0.07606889359977567
17.156,0.07606502307236471
17.16,0.07606966289714928
17.164,0.07607483161387821
17.168,0.07607456716790603
17.172,0.07604478093522163
17.176000000000002,0.0760062199043695
17.18,0.07599172345698556
17.184,0.07599525741679558
17.188,0.07598037632072484
17.192,0.07596761079243153
17.196,0.07595522991282501
17.2,0.07591892869300787
17.204,0.07590755751620422
17.208000000000002,0.07591448119256669
17.212,0.07591349553030675
17.216,0.07590332638064937
17.22,0.07588611335191488
17.224,0.07587808381057784
17.228,0.07587979068912554
17.232,0.07588659416277338
17.236,0.07588652204114461
17.240000000000002,0.07587849249980758
17.244,0.07586096694401505
17.248,0.07584577332088628
17.252,0.07583420981973923
17.256,0.07582764675152064
17.26,0.07582829584617962
17.264,0.07583127687350236
17.268,0.07585418751091012
