0.0,-0.007796684638263936
0.004,-0.007785289420917362
0.008,-0.007795554732746449
0.012,-0.007812142707364881
0.016,-0.007823153276024652
0.02,-0.007833106060795713
0.024,-0.007865729077545295
0.028,-0.007867796564236867
0.032,-0.007837649723408587
0.036000000000000004,-0.007805531558060434
0.04,-0.007810916639675693
0.044,-0.007910853176616014
0.048,-0.007980594791642204
0.052000000000000005,-0.007849886359757547
0.056,-0.007664221246745735
0.06,-0.007646791853124919
0.064,-0.0077117734406519055
0.068,-0.0077414394706216815
0.07200000000000001,-0.007741583713879233
0.076,-0.00774631970083551
0.08,-0.0077465120251789124
0.084,-0.007744444538487339
0.088,-0.0077374006594102375
0.092,-0.007747954457754428
0.096,-0.007761152715820397
0.1,-0.007753940552942818
0.10400000000000001,-0.007741150984106579
0.108,-0.007740958659763176
0.112,-0.0077488920389285135
0.116,-0.007758892904785423
0.12,-0.007770071757245671
0.124,-0.007761080594191621
0.128,-0.007764830918887963
0.132,-0.007774927946916573
0.136,-0.007771970960136766
0.14,-0.007761777769936454
0.14400000000000002,-0.00775545510714711
0.148,-0.007752738525796555
0.152,-0.007750094066074777
0.156,-0.00774266553831087
0.16,-0.007737977632440444
0.164,-0.00773586206466302
0.168,-0.007733145483312466
0.17200000000000001,-0.007737016010723434
0.176,-0.007760575742790191
0.18,-0.00778605871829097
0.184,-0.007816590207806055
0.188,-0.007886067376860068
0.192,-0.007880081281671676
0.196,-0.007775985730805285
0.2,-0.007677996477841911
0.20400000000000001,-0.007685136519090714
0.20800000000000002,-0.0077340590239436255
0.212,-0.007750695079647908
0.216,-0.007736102470092273
0.22,-0.007716148819464304
0.224,-0.007707085534781479
0.228,-0.00770302268302711
0.232,-0.007697637601411851
0.23600000000000002,-0.007690617762877674
0.24,-0.007646262961180563
0.244,-0.0076512153130231676
0.248,-0.0076525615834269825
0.252,-0.00762825659452954
0.256,-0.007612774484885671
0.26,-0.007612077309140838
0.264,-0.007628136391814914
0.268,-0.0076404932308785
0.272,-0.007663932760230632
0.276,-0.007657081205496932
0.28,-0.007616981579897592
0.28400000000000003,-0.007589334955533539
0.28800000000000003,-0.0075715209132259185
0.292,-0.007527935408902415
0.296,-0.007505673866153621
0.3,-0.00751841535390401
0.304,-0.007527598841301461
0.308,-0.00753207038228556
0.312,-0.007533416652689377
0.316,-0.007532719476944542
0.32,-0.007541157707511311
0.324,-0.007590440820508101
0.328,-0.007644532042089944
0.332,-0.007624866877977078
0.336,-0.007539282545163141
0.34,-0.007528560463018472
0.34400000000000003,-0.007570054440107478
0.34800000000000003,-0.007592989118058179
0.352,-0.007608038497929394
0.356,-0.007582771887314942
0.36,-0.007564332790891265
0.364,-0.007554884857521637
0.368,-0.007558274574074098
0.372,-0.007544427221349148
0.376,-0.007543946410490642
0.38,-0.007539210423534365
0.384,-0.007544691667321325
0.388,-0.007556519614440554
0.392,-0.007547288045957254
0.396,-0.00751654019155584
0.4,-0.0074980049329604614
0.404,-0.007517814340330878
0.40800000000000003,-0.007548514113646442
0.41200000000000003,-0.007574117291861847
0.41600000000000004,-0.007580151468136088
0.42,-0.007569164940019243
0.424,-0.007550413316537538
0.428,-0.007557048506384911
0.432,-0.007570054440107478
0.436,-0.007586257766039105
0.44,-0.007578829238275199
0.444,-0.007574958710864232
0.448,-0.007582723806229092
0.452,-0.0076268862835828
0.456,-0.007699392561045395
0.46,-0.0076998012502751245
0.464,-0.007567986953415905
0.468,-0.007431027980370678
0.47200000000000003,-0.00740203508560281
0.47600000000000003,-0.007447255346845231
0.48,-0.0075957056994087335
0.484,-0.0075834931036027
0.488,-0.0075839739144612055
0.492,-0.007620371296450054
0.496,-0.007710571413505642
0.5,-0.007714538103088311
0.504,-0.0075815939007116044
0.508,-0.007464588578294346
0.512,-0.007470935281626615
0.516,-0.007538897896476337
0.52,-0.007588637779788706
0.524,-0.007608326984444497
0.528,-0.0075877723202433965
0.532,-0.007563779858403984
0.536,-0.007547937140616236
0.54,-0.00753156553088413
0.544,-0.007538224761274429
0.548,-0.007532959882373797
0.552,-0.00753207038228556
0.556,-0.007538970018105113
0.56,-0.007538609409961233
0.5640000000000001,-0.007546855316184598
0.5680000000000001,-0.007555149303493815
0.5720000000000001,-0.007544403180806222
0.5760000000000001,-0.007538080518016878
0.58,-0.007575920332581242
0.584,-0.007636045730437326
0.588,-0.007615755512208403
0.592,-0.007508991461077307
0.596,-0.007480190890652842
0.6,-0.007514280380520865
0.604,-0.007510433893652823
0.608,-0.007480383214996244
0.612,-0.007486273148012933
0.616,-0.0074941344055494945
0.62,-0.007501755257656803
0.624,-0.007498028973503387
0.628,-0.007492187121572548
0.632,-0.007499711811508156
0.636,-0.007496730784185422
0.64,-0.007488605080676684
0.644,-0.007489422459136143
0.648,-0.007489085891535189
0.652,-0.007486152945298307
0.656,-0.007486249107470008
0.66,-0.00750425547412103
0.664,-0.007536758288155988
0.668,-0.00755293757354469
0.672,-0.0075133187588038546
0.676,-0.007472473876373832
0.68,-0.007477065620072557
0.684,-0.007544475302434997
0.6880000000000001,-0.007646311042266414
0.6920000000000001,-0.007639820095676593
0.6960000000000001,-0.007495865324640113
0.7000000000000001,-0.007418815384564644
0.704,-0.007435090832125048
0.708,-0.0074752625793531625
0.712,-0.0074845422289223145
0.716,-0.007462160483458894
0.72,-0.007429729791052713
0.724,-0.007429681709966863
0.728,-0.007420594384741113
0.732,-0.007411555140601214
0.736,-0.0074422789544597015
0.74,-0.007452856793346817
0.744,-0.007451246076970825
0.748,-0.007448096765847615
0.752,-0.007463074024090054
0.756,-0.007496826946357124
0.76,-0.007507116298729136
0.764,-0.0074778829985320166
0.768,-0.007427469980017739
0.772,-0.0073941497875233235
0.776,-0.007405665207584525
0.78,-0.007428191196305496
0.784,-0.007432398291317417
0.788,-0.007430667372226798
0.792,-0.007442928049118684
0.796,-0.007448192928019316
0.8,-0.007453674171806276
0.804,-0.007466487781185442
0.808,-0.007473339335919141
0.812,-0.007496225932783992
0.8160000000000001,-0.007576833873212402
0.8200000000000001,-0.0075834931036027
0.8240000000000001,-0.007484518188379389
0.8280000000000001,-0.007405785410299151
0.8320000000000001,-0.00743035484516877
0.836,-0.007468699511134566
0.84,-0.007485431729010549
0.844,-0.007480791904225973
0.848,-0.007479445633822158
0.852,-0.0074941344055494945
0.856,-0.00750608255538335
0.86,-0.007502187987429457
0.864,-0.007484109499149659
0.868,-0.007498221297846789
0.872,-0.007526324692526422
0.876,-0.007526300651983496
0.88,-0.007483748891005781
0.884,-0.007457833185732347
0.888,-0.0074414856165431675
0.892,-0.007445500387211687
0.896,-0.007461583510428688
0.9,-0.007471536295199747
0.904,-0.007477426228216437
0.908,-0.007464131807978766
0.912,-0.007470045781538381
0.916,-0.007468651430048715
0.92,-0.007465021308067
0.924,-0.007458482280391329
0.928,-0.007458626523648881
0.932,-0.007475310660439013
0.936,-0.007483099796346798
0.9400000000000001,-0.00745949198319419
0.9440000000000001,-0.007417421033074978
0.9480000000000001,-0.007395568179555914
0.9520000000000001,-0.0073947027200106045
0.9560000000000001,-0.007419320235966074
0.96,-0.007476536728128202
0.964,-0.007509472271935812
0.968,-0.007470165984253007
0.972,-0.007378355150821425
0.976,-0.007354627134954191
0.98,-0.007388716624822214
0.984,-0.00740665086984446
0.988,-0.007407540369932695
0.992,-0.007414151519237143
0.996,-0.007432061723716464
1.0,-0.00744583695481264
1.004,-0.007453193360947771
1.008,-0.0074283113990201224
1.012,-0.00738066304294225
1.016,-0.007362464351947827
1.02,-0.007367368622704581
1.024,-0.0073861442867292106
1.028,-0.007402347612660838
1.032,-0.007402732261347643
1.036,-0.007401265788229201
1.04,-0.007408862599793584
1.044,-0.007413863032722039
1.048,-0.007437398724245873
1.052,-0.007462833618660802
1.056,-0.00745761682084602
1.06,-0.007438432467591659
1.064,-0.007446125441327744
1.068,-0.007476536728128202
1.072,-0.007446582211643324
1.076,-0.0073784513129931265
1.08,-0.00735686290544624
1.084,-0.007342895350006662
1.088,-0.007338231484679161
1.092,-0.007376263623586928
1.096,-0.007399967598911237
1.1,-0.0074023956937466886
1.104,-0.007404968031839692
1.108,-0.00740614601844303
1.112,-0.0074059536940996274
1.116,-0.007410353113454951
1.12,-0.007412108073088495
1.124,-0.007413766870550338
1.1280000000000001,-0.007413742830007413
1.1320000000000001,-0.0074122282758031215
1.1360000000000001,-0.007425979466356372
1.1400000000000001,-0.007439754697452549
1.1440000000000001,-0.007431508791229183
1.1480000000000001,-0.007431460710143332
1.1520000000000001,-0.007443072292376235
1.156,-0.007488917607734712
1.16,-0.007533080085088423
1.164,-0.0075059383121257985
1.168,-0.007392755436033658
1.172,-0.007326379497017006
1.176,-0.007339145025310321
1.18,-0.007384509529810293
1.184,-0.007458987131792759
1.188,-0.007521059813625789
1.192,-0.0074424472382601786
1.196,-0.007322508969606038
1.2,-0.00731681136093275
1.204,-0.007349770945283288
1.208,-0.007363233649321435
1.212,-0.007372056528575007
1.216,-0.007381792948459739
1.22,-0.007384894178497097
1.224,-0.007378162826478024
1.228,-0.007395616260641765
1.232,-0.007409824221510595
1.236,-0.007410545437798353
1.24,-0.007411386856800737
1.244,-0.00742167620917275
1.248,-0.007422445506546358
1.252,-0.00743167707502966
1.256,-0.0074295855477951615
1.26,-0.007433239710319802
1.264,-0.007473219133204516
1.268,-0.007502668798287963
1.272,-0.0074672570785590505
1.276,-0.007393284327978014
1.28,-0.0073621999059756485
1.284,-0.007367464784876281
1.288,-0.007383740232436684
1.292,-0.0073856634758707055
1.296,-0.007381408299772934
1.3,-0.007387274192246698
1.304,-0.007394173828066249
1.308,-0.00741939235759485
1.312,-0.0074749500522951345
1.316,-0.007482546863859517
1.32,-0.007403381356006625
1.324,-0.007349290134424783
1.328,-0.0073741720963524295
1.332,-0.007412444640689449
1.336,-0.0074292730207371335
1.34,-0.007421892574059077
1.344,-0.007405472883241122
1.348,-0.007368762974194245
1.352,-0.007341212512001894
1.356,-0.0073411163498301926
1.36,-0.0073411163498301926
1.364,-0.007365637703613961
1.368,-0.0073677532713913845
1.372,-0.007366046392843691
1.3760000000000001,-0.007366839730760224
1.3800000000000001,-0.007379100407652109
1.3840000000000001,-0.00740431893718071
1.3880000000000001,-0.007404391058809486
1.3920000000000001,-0.007384966300125873
1.3960000000000001,-0.0073705179338277894
1.4000000000000001,-0.007378475353536052
1.4040000000000001,-0.00742350329043507
1.408,-0.007454659834066212
1.412,-0.007420161654968459
1.416,-0.00736051706797088
1.42,-0.007345732134071844
1.424,-0.007352872175320647
1.428,-0.007367440744333356
1.432,-0.00737371532603685
1.436,-0.007368642771479619
1.44,-0.0073637865818087156
1.444,-0.00736914762288105
1.448,-0.007378283029192649
1.452,-0.007398573247421572
1.456,-0.007420113573882608
1.46,-0.007433648399549531
1.464,-0.007420329938768935
1.468,-0.007371912285317455
1.472,-0.007311979211804772
1.476,-0.007312916792978858
1.48,-0.0073373179440480015
1.484,-0.0073476072964200135
1.488,-0.0073472947693619855
1.492,-0.007348256391078996
1.496,-0.007354338648439087
1.5,-0.007367705190305534
1.504,-0.007419224073794373
1.508,-0.007444081995179096
1.512,-0.007402780342433493
1.516,-0.007334409038354043
1.52,-0.007321451185717327
1.524,-0.007346068701672797
1.528,-0.007356622500016987
1.532,-0.007361142122086937
1.536,-0.0073613344464303395
1.54,-0.007365349217098858
1.544,-0.007372056528575007
1.548,-0.007368258122792815
1.552,-0.007366695487502673
1.556,-0.007367392663247505
1.56,-0.007381360218687083
1.564,-0.0074186471007641665
1.568,-0.007444154116807872
1.572,-0.007413310100234758
1.576,-0.007364195271038446
1.58,-0.007354290567353237
1.584,-0.007366431041530495
1.588,-0.007408285626763378
1.592,-0.00738878874645099
1.596,-0.00734275110674911
1.6,-0.007344097377152925
1.604,-0.007358257256935906
1.608,-0.0073614065680591145
1.612,-0.0073589544326807385
1.616,-0.007365565581985186
1.62,-0.0073863846921584635
1.624,-0.007393957463179921
1.6280000000000001,-0.007359843932768973
1.6320000000000001,-0.007335106214098876
1.6360000000000001,-0.007332173267861994
1.6400000000000001,-0.007364387595381847
1.6440000000000001,-0.0074215800470010486
1.6480000000000001,-0.007429417263994684
1.6520000000000001,-0.0073565022973023616
1.6560000000000001,-0.007297290440077437
1.6600000000000001,-0.007307507670820674
1.6640000000000001,-0.00733452924106867
1.668,-0.0073480159856497435
1.672,-0.0073667916496743735
1.676,-0.007379773542854016
1.68,-0.007381047691629055
1.684,-0.00738015819154082
1.688,-0.007384966300125873
1.692,-0.007394221909152099
1.696,-0.007386360651615538
1.7,-0.007364531838639399
1.704,-0.007363017284435108
1.708,-0.007374460582867533
1.712,-0.007373162393549569
1.716,-0.007357968770420802
1.72,-0.0073380151197928335
1.724,-0.007352343283376291
1.728,-0.007354218445724461
1.732,-0.007372705623233989
1.736,-0.007406819153644937
1.74,-0.007414968897696601
1.744,-0.00737919656982381
1.748,-0.00735914675702414
1.752,-0.007371912285317455
1.756,-0.007386865503016969
1.76,-0.00738056688077055
1.764,-0.007365277095470082
1.768,-0.007355732999928753
1.772,-0.007355107945812696
1.776,-0.007359411202996318
1.78,-0.007372296934004259
1.784,-0.0073851105433834245
1.788,-0.007392130381917601
1.792,-0.0073926352333190315
1.796,-0.007394991206525708
1.8,-0.007401746599087706
1.804,-0.007404655504781663
1.808,-0.0073893897600241214
1.812,-0.007383740232436684
1.816,-0.007380783245656877
1.82,-0.007381696786288037
1.824,-0.00741294949209088
1.828,-0.007462280686173521
1.832,-0.007457039847815814
1.836,-0.0073893176383953455
1.84,-0.007320922293772971
1.844,-0.007327461321448642
1.848,-0.007348496796508249
1.852,-0.007358906351594888
1.856,-0.007373498961150522
1.86,-0.007384389327095666
1.864,-0.007390303300655281
1.868,-0.0073871780300749975
1.872,-0.007385927921842884
1.8760000000000001,-0.007390519665541609
1.8800000000000001,-0.007403285193834924
1.8840000000000001,-0.007452400023031237
1.8880000000000001,-0.007503197690232319
1.8920000000000001,-0.007450717185026469
1.8960000000000001,-0.0073446022285543556
1.9000000000000001,-0.007299237724054383
1.9040000000000001,-0.0073236148345806
1.9080000000000001,-0.007357872608249101
1.9120000000000001,-0.0073709987446862945
1.9160000000000001,-0.007371840163688679
1.92,-0.007367392663247505
1.924,-0.007370181366226836
1.928,-0.007373931690923177
1.932,-0.007372080569117932
1.936,-0.007364363554838923
1.94,-0.007358786148880261
1.944,-0.007349001647909679
1.948,-0.007360949797743535
1.952,-0.0073720324880320815
1.956,-0.007400736896284846
1.96,-0.007409704018795969
1.964,-0.007360228581455777
1.968,-0.007335514903328605
1.972,-0.007354555013325415
1.976,-0.007351573986002682
1.98,-0.007318518239480445
1.984,-0.007307291305934346
1.988,-0.007330250024427973
1.992,-0.007356983108160867
1.996,-0.007361622932945442
2.0,-0.00736280091954878
2.004,-0.007363690419637015
2.008,-0.007366070433386616
2.012,-0.007371215109572622
2.016,-0.007374244217981205
2.02,-0.0073816246646592615
2.024,-0.007377513731819042
2.028,-0.007370277528398537
2.032,-0.007383716191893759
2.036,-0.007403717923607578
2.04,-0.007415449708555107
2.044,-0.007410208870197399
2.048,-0.007374532704496309
2.052,-0.007338519971194265
2.056,-0.007318205712422416
2.06,-0.007326643942989183
2.064,-0.007346597593617153
2.068,-0.007366070433386616
2.072,-0.007369700555368331
2.076,-0.007363065365520958
2.08,-0.0073528481347777215
2.084,-0.007369556312110779
2.088,-0.007382201637689468
2.092,-0.007392731395490733
2.096,-0.007395159490326184
2.1,-0.0073843172054668905
2.104,-0.007368426406593292
2.108,-0.007365277095470082
2.112,-0.0073667195280455984
2.116,-0.007366671446959748
2.12,-0.007373643204408074
2.124,-0.007377682015619518
2.128,-0.0073925631116902564
2.132,-0.007424296628351604
2.136,-0.007424488952695005
2.14,-0.007361142122086937
2.144,-0.007310632941400958
2.148,-0.00734859295867995
2.152,-0.007474589444151255
2.156,-0.007499086757392099
2.16,-0.007359675648968496
2.164,-0.007249281475855686
2.168,-0.007257503341536126
2.172,-0.007315753577044039
2.176,-0.007339625836168827
2.18,-0.007361021919372311
2.184,-0.007371840163688679
2.188,-0.007354506932239564
2.192,-0.007334673484326221
2.196,-0.007334721565412072
2.2,-0.0073387363360805915
2.204,-0.007340996147115566
2.208,-0.007341164430916043
2.212,-0.007340226849741958
2.216,-0.007340443214628285
2.22,-0.007348280431621921
2.224,-0.007354098243009835
2.228,-0.007356694621645763
2.232,-0.007358882311051963
2.236,-0.007366310838815868
2.24,-0.007389029151880242
2.244,-0.007395952828242718
2.248,-0.007353689553780105
2.2520000000000002,-0.007301810062147386
2.2560000000000002,-0.007293564155924021
2.2600000000000002,-0.007310055968370752
2.2640000000000002,-0.007328062335021774
2.2680000000000002,-0.007327124753847688
2.2720000000000002,-0.0073304663893143
2.2760000000000002,-0.0073450830394128615
2.2800000000000002,-0.00736046898688503
2.2840000000000003,-0.007370590055456565
2.2880000000000003,-0.007367729230848459
2.2920000000000003,-0.007342102012090129
2.2960000000000003,-0.007334553281611595
2.3000000000000003,-0.0073374621873055525
2.3040000000000003,-0.007339890282141004
2.308,-0.007351790350889009
2.312,-0.007338351687393788
2.316,-0.007324336050868358
2.32,-0.007324023523810329
2.324,-0.007319527942283305
2.328,-0.007308421211451833
2.332,-0.007311257995517015
2.336,-0.007314840036412879
2.34,-0.007321355023545625
2.344,-0.0073247687806410125
2.348,-0.007332173267861994
2.352,-0.007340731701143389
2.356,-0.0073442897014963275
2.36,-0.007362536473576603
2.364,-0.007360420905799179
2.368,-0.007345563850271367
2.372,-0.007338039160335759
2.376,-0.007340924025486791
2.38,-0.007368787014737171
2.384,-0.007441894305772898
2.388,-0.007475118336095611
2.392,-0.007360348784170403
2.396,-0.00723747756927938
2.4,-0.007248560259567928
2.404,-0.00729717023736281
2.408,-0.007311474360403342
2.412,-0.007313662049809541
2.416,-0.007317268131248331
2.42,-0.007323374429151348
2.424,-0.007330802956915254
2.428,-0.007330610632571851
2.432,-0.007326932429504287
2.436,-0.0073177970231926865
2.44,-0.007307291305934346
2.444,-0.007323013821007468
2.448,-0.0073223887668914115
2.452,-0.007320681888343718
2.456,-0.007320152996399362
2.46,-0.0073236629156664505
2.464,-0.007321379064088551
2.468,-0.007325489996928771
2.472,-0.007327461321448642
2.476,-0.007339385430739574
2.48,-0.007346645674703003
2.484,-0.0073316684164605635
2.488,-0.007316643077132274
2.492,-0.007317989347536088
2.496,-0.0073189028881672485
2.5,-0.0073380151197928335
2.504,-0.007356141689158482
2.508,-0.007374027853094878
2.512,-0.0073661665955583175
2.516,-0.0073297692135694675
2.52,-0.007292674655835787
2.524,-0.0073036852244955566
2.528,-0.007329168199996336
2.532,-0.007365253054927157
2.536,-0.007359002513766588
2.54,-0.00732544191584292
2.544,-0.007292746777464562
2.548,-0.007295150831757088
2.552,-0.007317604698849284
2.556,-0.0073207299694295685
2.56,-0.007307050900505094
2.564,-0.007294237291125928
2.568,-0.007289549385255502
2.572,-0.007292193844977281
2.576,-0.0073065460491036635
2.58,-0.007315200644556758
2.584,-0.0073181095502507145
2.588,-0.007338664214451816
2.592,-0.007401938923431109
2.596,-0.007439442170394521
2.6,-0.00736741670379043
2.604,-0.007240626880402591
2.608,-0.0072230292029812964
2.612,-0.007265340558529762
2.616,-0.007283370965723709
2.62,-0.00729164091249
2.624,-0.007302242791920041
2.628,-0.007308349089823058
2.632,-0.007307026859962169
2.636,-0.007304863211098894
2.64,-0.007316234387902544
2.644,-0.00731402265795342
2.648,-0.007308132724936731
2.652,-0.007310993549544837
2.656,-0.007317724901563911
2.66,-0.007313878414695868
2.664,-0.007312916792978858
2.668,-0.0073499151885408395
2.672,-0.0073539539997522834
2.676,-0.007321763712775355
2.68,-0.007285582695672833
2.684,-0.007280486100572678
2.688,-0.007288130993222911
2.692,-0.00729666538596138
2.696,-0.007300079143056767
2.7,-0.007307699995164076
2.704,-0.007308301008737208
2.708,-0.007306906657247542
2.712,-0.0073154170094430855
2.716,-0.007325297672585368
2.72,-0.007334817727583772
2.724,-0.007340443214628285
2.728,-0.007325658280729248
2.732,-0.0073018581432332365
2.736,-0.007293203547780142
2.74,-0.00730493533272767
2.744,-0.007300007021427991
2.748,-0.007277336789449468
2.7520000000000002,-0.007258368801081436
2.7560000000000002,-0.0072661098559033705
2.7600000000000002,-0.0072765674920758595
2.7640000000000002,-0.007279356195055191
2.7680000000000002,-0.007281207316860436
2.7720000000000002,-0.0072925063720353095
2.7760000000000002,-0.007310055968370752
2.7800000000000002,-0.007317845104278537
2.7840000000000003,-0.007328687389137831
2.7880000000000003,-0.007350444080485195
2.7920000000000003,-0.0073828988134343005
2.7960000000000003,-0.007353929959209358
2.8000000000000003,-0.007304694927298418
2.8040000000000003,-0.007286544317389844
2.8080000000000003,-0.007278346492252329
2.8120000000000003,-0.007272745045750743
2.816,-0.00725875344976824
2.82,-0.007260700733745186
2.824,-0.007273033532265846
2.828,-0.007283395006266635
2.832,-0.007288683925710192
2.836,-0.007289549385255502
2.84,-0.007292722736921637
2.844,-0.0073007522782586745
2.848,-0.007301040764773778
2.852,-0.0073121955766911
2.856,-0.007313782252524167
2.86,-0.00731173880637552
2.864,-0.007312123455062324
2.868,-0.007308252927651357
2.872,-0.007309983846741976
2.876,-0.007317484496134658
2.88,-0.007326932429504287
2.884,-0.0073177970231926865
2.888,-0.007304021792096511
2.892,-0.0073100319278278265
2.896,-0.007308108684393805
2.9,-0.007306089278788083
2.904,-0.007310753144115585
2.908,-0.007311955171261848
2.912,-0.007307074941048019
2.916,-0.007307940400593328
2.92,-0.0073096232385980965
2.924,-0.007323566753494749
2.928,-0.007345251323213338
2.932,-0.007379893745568643
2.936,-0.007412901411005029
2.94,-0.00736599831175784
2.944,-0.0072730816133516965
2.948,-0.00722884701436921
2.952,-0.007242550123836612
2.956,-0.007265893491017043
2.96,-0.007277961843565525
2.964,-0.0072914005070607475
2.968,-0.007302555318978069
2.972,-0.007303540981238006
2.976,-0.0072972663995345115
2.98,-0.007302387035177592
2.984,-0.007303829467753108
2.988,-0.007295463358815117
2.992,-0.007301810062147386
2.996,-0.007305536346300802
3.0,-0.007305319981414475
3.004,-0.007302362994634667
3.008,-0.007294453656012256
3.012,-0.0072770483029343655
3.016,-0.007271350694261078
3.02,-0.007270316950915292
3.024,-0.007265052072014659
3.028,-0.007278346492252329
3.032,-0.0072716632213191065
3.036,-0.007269860180599712
3.04,-0.0072718074645766574
3.044,-0.007269114923769028
3.048,-0.007266951274905754
3.052,-0.007281159235774585
3.056,-0.0072840200603826915
3.06,-0.0072852942091577305
3.064,-0.007298756913195877
3.068,-0.007330129821713346
3.072,-0.007355180067441472
3.076,-0.007313662049809541
3.08,-0.007261854679805599
3.084,-0.007261253666232467
3.088,-0.007277336789449468
3.092,-0.007279524478855667
3.096,-0.007266037734274595
3.1,-0.007261782558176823
3.104,-0.007270292910372366
3.108,-0.007277168505648991
3.112,-0.007274644248641839
3.116,-0.007271759383490807
3.12,-0.00727154301860448
3.124,-0.007267648450650587
3.128,-0.007270365032001142
3.132,-0.007285005722642627
3.136,-0.007302795724407322
3.14,-0.007317724901563911
3.144,-0.007297771250935942
3.148,-0.007273706667467753
3.152,-0.007279043667997162
3.156,-0.007299117521339757
3.16,-0.007322605131777739
3.164,-0.007307844238421627
3.168,-0.007261494071661719
3.172,-0.007237910299052037
3.176,-0.007242141434606883
3.18,-0.007249233394769836
3.184,-0.007252406746435971
3.188,-0.007262335490664104
3.192,-0.007266254099160922
3.196,-0.00726839370748127
3.2,-0.00729022252045741
3.204,-0.00732498514552734
3.208,-0.007335178335727652
3.212,-0.007296400939989202
3.216,-0.007254161706069515
3.22,-0.007243079015780968
3.224,-0.0072458917593032236
3.228,-0.007248488137939152
3.232,-0.007253127962723728
3.236,-0.007259859314742802
3.24,-0.0072626960988079825
3.244,-0.0072516855301482126
3.248,-0.007234184014898618
3.2520000000000002,-0.007249449759656163
3.2560000000000002,-0.007264018328668872
3.2600000000000002,-0.00726788885607984
3.2640000000000002,-0.007266085815360445
3.2680000000000002,-0.0072842604658119444
3.2720000000000002,-0.007324720699555162
3.2760000000000002,-0.00732909607836756
3.2800000000000002,-0.007336115916901738
3.2840000000000003,-0.007331259727230833
3.2880000000000003,-0.007284140263097318
3.2920000000000003,-0.007216922905078279
3.2960000000000003,-0.007221274243347752
3.3000000000000003,-0.0072440646780409035
3.3040000000000003,-0.007249497840742013
3.3080000000000003,-0.007254017462811963
3.3120000000000003,-0.007264066409754723
3.3160000000000003,-0.007267119558706231
3.3200000000000003,-0.007266638747847726
3.3240000000000003,-0.007270966045574274
3.3280000000000003,-0.0072762549650178315
3.332,-0.007282168938577446
3.336,-0.007308108684393805
3.34,-0.007347511134248313
3.344,-0.0073253217131282935
3.348,-0.007276687694790486
3.352,-0.007267960977708616
3.356,-0.007269427450827056
3.36,-0.007256060908960611
3.364,-0.007240386474973339
3.368,-0.007231611676805616
3.372,-0.007234232095984469
3.376,-0.007244954178129139
3.38,-0.007252647151865223
3.384,-0.00725692636850592
3.388,-0.007256565760362041
3.392,-0.0072621431663207016
3.396,-0.0072683215858524945
3.4,-0.007270845842859647
3.404,-0.00728159196554724
3.408,-0.00728341904680956
3.412,-0.0072875059391068545
3.416,-0.007295607602072669
3.42,-0.007283130560294456
3.424,-0.00725235866535012
3.428,-0.00724185294809178
3.432,-0.007250146935400995
3.436,-0.0072605564904876345
3.44,-0.007265076112557584
3.444,-0.007270821802316722
3.448,-0.007271567059147405
3.452,-0.00726930724811243
3.456,-0.007267552288478886
3.46,-0.007277553154335796
3.464,-0.007321931996575832
3.468,-0.007355660878299977
3.472,-0.007305488265214951
3.476,-0.007247262070249964
3.48,-0.007234256136527394
3.484,-0.007242694367094164
3.488,-0.007259498706598923
3.492,-0.007262840342065534
3.496,-0.007261229625689542
3.5,-0.007259883355285727
3.504,-0.007266758950562353
3.508,-0.007274091316154558
3.512,-0.007276735775876337
3.516,-0.007266758950562353
3.52,-0.007261470031118795
3.524,-0.007275293343300821
3.528,-0.0072775291137928706
3.532,-0.00727615880284613
3.536,-0.007275918397416877
3.54,-0.00727067755905917
3.544,-0.007267840774993989
3.548,-0.007262816301522609
3.552,-0.0072533443276100555
3.556,-0.007255892625160134
3.56,-0.0072548588818143476
3.564,-0.007260893058088588
3.568,-0.007263946207040096
3.572,-0.007257022530677621
3.576,-0.007244978218672064
3.58,-0.007245146502472541
3.584,-0.007247646718936769
3.588,-0.0072493055163986115
3.592,-0.007250339259744398
3.596,-0.007246997624277786
3.6,-0.0072456513538739714
3.604,-0.0072434396239248475
3.608,-0.007242069312978107
3.612,-0.00725235866535012
3.616,-0.00725103643548923
3.62,-0.007250050773229295
3.624,-0.007237429488193529
3.628,-0.007232933906666505
3.632,-0.0072402662722587125
3.636,-0.007241732745377153
3.64,-0.007245483070073494
3.644,-0.007246060043103701
3.648,-0.0072474784351362915
3.652,-0.0072394729343421785
3.656,-0.00725149320580481
3.66,-0.007269547653541683
3.664,-0.00726839370748127
3.668,-0.007245795597131523
3.672,-0.007216754621277802
3.676,-0.007207643255509128
3.68,-0.0072192307971991046
3.684,-0.007240915366917695
3.688,-0.0072501709759439205
3.692,-0.00723961717759973
3.696,-0.007221178081176051
3.7,-0.00723021732531595
3.704,-0.0072427184076370894
3.708,-0.007270653518516245
3.712,-0.007307988481679179
3.716,-0.007281880452062343
3.72,-0.007220841513575098
3.724,-0.0071998060385154924
3.728,-0.007198796335712631
3.732,-0.007198507849197528
3.736,-0.007200431092631549
3.74,-0.007196440362505955
3.744,-0.007194469037986084
3.748,-0.007208797201569541
3.7520000000000002,-0.0072128119722380596
3.7560000000000002,-0.007219903932401012
3.7600000000000002,-0.0072224041488652396
3.7640000000000002,-0.007227524784508321
3.7680000000000002,-0.007234015731098142
3.7720000000000002,-0.007240554758773815
3.7760000000000002,-0.007244353164556007
3.7800000000000002,-0.0072431992184955945
3.7840000000000003,-0.007262431652835805
3.7880000000000003,-0.007287289574220528
3.7920000000000003,-0.007272648883579042
3.7960000000000003,-0.00723656402864822
3.8000000000000003,-0.0072067056743350425
3.8040000000000003,-0.00719874825462678
3.8080000000000003,-0.007208941444827092
3.8120000000000003,-0.007215913202275419
3.8160000000000003,-0.007215167945444735
3.8200000000000003,-0.0072158170401037175
3.8240000000000003,-0.007215408350873988
3.8280000000000003,-0.007220384743259517
3.8320000000000003,-0.0072256496221601504
3.8360000000000003,-0.0072280296359097515
3.84,-0.007233126231009907
3.844,-0.007244882056500363
3.848,-0.007249473800199088
3.852,-0.00723961717759973
3.856,-0.007238968082940748
3.86,-0.007249185313683985
3.864,-0.00727296141063707
3.868,-0.007276687694790486
3.872,-0.0072578639496800055
3.876,-0.007198964619513108
3.88,-0.007183145942268284
3.884,-0.007209614580028999
3.888,-0.007217668161908963
3.892,-0.00722427931121341
3.896,-0.00722793347373805
3.9,-0.007227669027765872
3.904,-0.0072259621492181784
3.908,-0.00721966352697176
3.912,-0.007220745351403397
3.916,-0.007227693068308797
3.92,-0.007224976486958243
3.924,-0.007230553892916904
3.928,-0.0072440646780409035
3.932,-0.007244761853785736
3.936,-0.0072485121784820776
3.94,-0.007244232961841381
3.944,-0.007238126663938364
3.948,-0.007242502042750762
3.952,-0.007267840774993989
3.956,-0.007285871182187937
3.96,-0.007264162571926424
3.964,-0.007225721743788926
3.968,-0.007198483808654603
3.972,-0.007196007632733301
3.976,-0.007203171714525029
3.98,-0.007203243836153805
3.984,-0.0072040131335274135
3.988,-0.007215336229245212
3.992,-0.007220793432489247
3.996,-0.00722884701436921
4.0,-0.007231299149747587
4.0040000000000004,-0.007232933906666505
4.008,-0.0072272362979932175
4.0120000000000005,-0.007237717974708634
4.016,-0.0072389200018548976
4.0200000000000005,-0.00724550711061642
4.024,-0.007266181977532146
4.0280000000000005,-0.007262792260979684
4.032,-0.007221033837918499
4.0360000000000005,-0.007189372442885928
4.04,-0.007198988660056033
4.0440000000000005,-0.007226779527677638
4.048,-0.00725286351675155
4.0520000000000005,-0.0072426462860083135
4.056,-0.007219375040456656
4.0600000000000005,-0.00721148974237717
4.064,-0.007222043540721361
4.0680000000000005,-0.007242838610351716
4.072,-0.007255219489958226
4.0760000000000005,-0.007225505378902599
4.08,-0.007214783296757931
4.0840000000000005,-0.007215191985987661
4.088,-0.007228702771111659
4.0920000000000005,-0.007234424420327871
4.096,-0.0072197116080576105
4.1,-0.007205143039044901
4.104,-0.007213629350697519
4.108,-0.007217547959194336
4.112,-0.00721783644570944
4.116,-0.007216634418563177
4.12,-0.0072195433242571334
4.124,-0.0072259621492181784
4.128,-0.00722199545963551
4.132,-0.0072224041488652396
4.136,-0.007229399946856491
4.14,-0.007275557789272999
4.144,-0.007306810495075841
4.148,-0.007283611371152962
4.152,-0.007205792133703883
4.156,-0.0071816554286069185
4.16,-0.007215792999560792
4.164,-0.0072443050834701565
4.168,-0.007229207622513089
4.172,-0.007179900468973374
4.176,-0.0071585765073986654
4.18,-0.007169490913886735
4.184,-0.007184612415386726
4.188,-0.007188050213025038
4.192,-0.0072059844580472845
4.196,-0.0072147111751291555
4.2,-0.007223558094925652
4.204,-0.007226899730392264
4.208,-0.0072269237709351895
4.212,-0.007214759256215006
4.216,-0.0072243033517563355
4.22,-0.007219038472855703
4.224,-0.007215240067073511
4.228,-0.007228678730568734
4.232,-0.007239809501943133
4.236,-0.007245362867358868
4.24,-0.007222524351579866
4.244,-0.007181439063720591
4.248,-0.007173553765641104
4.252,-0.007186295253391494
4.256,-0.007196272078705479
4.26,-0.007207426890622801
4.264,-0.007209542458400223
4.268,-0.00721148974237717
4.272,-0.007210215593602131
4.276,-0.007211513782920095
4.28,-0.0072229570813525205
4.284,-0.0072288950954550605
4.288,-0.007219927972943937
4.292,-0.007213485107439967
4.296,-0.007224038905784157
4.3,-0.007235458163673657
4.304,-0.007233703204040113
4.308,-0.0072187499863405995
4.312,-0.007206657593249192
4.316,-0.007206176782390687
4.32,-0.00720235433606557
4.324,-0.007191944780978931
4.328,-0.007206585471620416
4.332,-0.007212283080293704
4.336,-0.007221057878461425
4.34,-0.007234977352815152
4.344,-0.0072658694504741175
4.348,-0.0072709420050313485
4.352,-0.007236251501590191
4.356,-0.007197401984222966
4.36,-0.007205936376961434
4.364,-0.0072469255026490105
4.368,-0.007245603272788121
4.372,-0.007234616744671274
4.376,-0.00721834129711087
4.38,-0.007199229065485286
4.384,-0.007201128268376381
4.388,-0.007213220661467789
4.392,-0.00721747583756556
4.396,-0.007218846148512301
4.4,-0.0072155766346744645
4.404,-0.0072213704055194535
4.408,-0.0072255775005313745
4.412,-0.007224255270670485
4.416,-0.007231491474090989
4.42,-0.007240674961488442
4.424,-0.007243800232068726
4.428,-0.007246564894505131
4.432,-0.0072688023967109995
4.436,-0.007328615267509055
4.44,-0.00734224625534768
4.444,-0.0072554118143016285
4.448,-0.007161653696893099
4.452,-0.0071443925870727605
4.456,-0.00716170177797895
4.46,-0.00717266426555287
4.464,-0.007189709010486881
4.468,-0.007197065416622012
4.472,-0.007205864255332659
4.476,-0.007214038039927248
4.48,-0.007221057878461425
4.484,-0.007228726811654584
4.488,-0.007230025000972548
4.492,-0.007232645420151402
4.496,-0.007224038905784157
4.5,-0.007223485973296876
4.5040000000000004,-0.007220721310860471
4.508,-0.007218677864711824
4.5120000000000005,-0.007219831810772236
4.516,-0.0072189903917698525
4.5200000000000005,-0.007211970553235675
4.524,-0.007206897998678445
4.5280000000000005,-0.007203364038868431
4.532,-0.007204397782214217
4.5360000000000005,-0.007207691336594979
4.54,-0.007206729714877968
4.5440000000000005,-0.007205215160673677
4.548,-0.00720870103939784
4.5520000000000005,-0.00723117894703296
4.556,-0.007260508409401784
4.5600000000000005,-0.007284909560470927
4.564,-0.007263994288125947
4.5680000000000005,-0.007197137538250788
4.572,-0.0071592977236864235
4.5760000000000005,-0.007186175050676868
4.58,-0.007211826309978124
4.5840000000000005,-0.007219567364800059
4.588,-0.007215095823815959
4.5920000000000005,-0.007209350134056822
4.596,-0.00720600849859021
4.6000000000000005,-0.007203844849726936
4.604,-0.007203820809184011
4.6080000000000005,-0.007205936376961434
4.612,-0.007212691769523433
4.616,-0.007217379675393859
4.62,-0.007216826742906578
4.624,-0.007215768959017867
4.628,-0.007216033404990045
4.632,-0.007222428189408165
4.636,-0.007224591838271438
4.64,-0.0072187499863405995
4.644,-0.007217764324080664
4.648,-0.007220793432489247
4.652,-0.007218461499825497
4.656,-0.007216249769876372
4.66,-0.00721697098616413
4.664,-0.007226250635733282
4.668,-0.007223678297640279
4.672,-0.0072208174730321725
4.676,-0.007216706540191953
4.68,-0.007210383877402608
4.684,-0.007198940578970183
4.688,-0.007213461066897042
4.692,-0.007215071783273034
4.696,-0.007211802269435199
4.7,-0.007204085255156189
4.704,-0.007199349268199912
4.708,-0.007201969687378766
4.712,-0.007209494377314374
4.716,-0.00721925483774203
4.72,-0.00722336577058225
4.724,-0.007226274676276207
4.728,-0.0072586572875965386
4.732,-0.0072879146283365845
4.736,-0.007248223691966975
4.74,-0.007184516253215025
4.744,-0.007167158981222985
4.748,-0.007182809374667331
4.752,-0.007197954916710247
4.756,-0.007202282214436795
4.76,-0.007199469470914538
4.764,-0.007200190687202296
4.768,-0.0072027630252953
4.772,-0.007199036741141884
4.776,-0.007198628051912155
4.78,-0.0071984597681116775
4.784,-0.0072030515118104025
4.788,-0.00720783557985253
4.792,-0.00722377445981198
4.796,-0.007291039898916868
4.8,-0.007322917658835767
4.804,-0.007240771123660143
4.808,-0.007163432697069569
4.812,-0.007162326832095007
4.816,-0.007172111333065589
4.82,-0.0071790350094280645
4.824,-0.007198988660056033
4.828,-0.007201128268376381
4.832,-0.007202041809007542
4.836,-0.007202113930636318
4.84,-0.00719824340322535
4.844,-0.007201032106204681
4.848,-0.007206200822933612
4.852,-0.00721879806742645
4.856,-0.007211369539662543
4.86,-0.007206633552706267
4.864,-0.0072107444855464865
4.868,-0.007222283946150613
4.872,-0.007212932174952686
4.876,-0.007199277146571137
4.88,-0.007194829646129963
4.884,-0.007197618349109293
4.888,-0.007207474971708651
4.892,-0.00720788366093838
4.896,-0.007205191120130751
4.9,-0.0072010801872905315
4.904,-0.007196512484134731
4.908,-0.007192064983693558
4.912,-0.0071982193626824245
4.916,-0.007206176782390687
4.92,-0.007205816174246808
4.924,-0.007204373741671292
4.928,-0.007209133769170494
4.932,-0.007204349701128367
4.936,-0.007231443393005139
4.94,-0.007257455260450275
4.944,-0.00727296141063707
4.948,-0.00725560413864503
4.952,-0.007224159108498784
4.956,-0.007204493944385919
4.96,-0.007195574902960646
4.964,-0.007194300754185607
4.968,-0.007195911470561599
4.972,-0.007193651659526625
4.976,-0.007195430659703094
4.98,-0.007199589673629165
4.984,-0.007203652525383534
4.988,-0.007207210525736473
4.992,-0.007203099592896253
4.996,-0.00719682501119276
5.0,-0.007195671065132347
5.0040000000000004,-0.007197570268023442
5.008,-0.007196368240877179
5.0120000000000005,-0.007205720012075107
5.016,-0.0072032919172396554
5.0200000000000005,-0.007210455999031384
5.024,-0.00723336663643916
5.0280000000000005,-0.007246300448532954
5.032,-0.0072128119722380596
5.0360000000000005,-0.0071784820769407835
5.04,-0.00717362588726988
5.0440000000000005,-0.007181919874579096
5.048,-0.007201248471091008
5.0520000000000005,-0.007194661362329486
5.056,-0.007191271645777024
5.0600000000000005,-0.007187473239994832
5.064,-0.007183097861182434
5.0680000000000005,-0.007204133336242039
5.072,-0.0072093260935138966
5.0760000000000005,-0.0071897330510298065
5.08,-0.007173649927812806
5.0840000000000005,-0.00718316998281121
5.088,-0.007187978091396262
5.0920000000000005,-0.007183458469326313
5.096,-0.007176943482193567
5.1000000000000005,-0.0071799966311450756
5.104,-0.007180212996031402
5.1080000000000005,-0.007176222265905809
5.112,-0.007182881496296107
5.1160000000000005,-0.007187665564338234
5.12,-0.007179852387887524
5.124,-0.007188723348226946
5.128,-0.007208821242112466
5.132,-0.0072194712026283575
5.136,-0.0072115378234630205
5.14,-0.0071894205239717785
5.144,-0.007182376644894677
5.148,-0.00718134290154889
5.152,-0.007178914806713438
5.156,-0.007185525956017885
5.16,-0.0071897330510298065
5.164,-0.007180958252862086
5.168,-0.007169226467914558
5.172,-0.007165692508104543
5.176,-0.007163697143041747
5.18,-0.0071662214000489
5.184,-0.007178674401284186
5.188,-0.0071774483335949974
5.192,-0.007173649927812806
5.196,-0.007179804306801673
5.2,-0.00720007048448767
5.204,-0.007228630649482883
5.208,-0.007243295380667296
5.212,-0.00727661557316171
5.216,-0.007264306815183976
5.22,-0.007194228632556831
5.224,-0.00713845457297022
5.228,-0.007138887302742874
5.232,-0.00716261531861011
5.236,-0.0071790350094280645
5.24,-0.0071779291444535025
5.244,-0.007175284684731723
5.248,-0.007178770563455887
5.252,-0.0071803812798318795
5.256,-0.007184203726156997
5.26,-0.007189228199628376
5.264,-0.007183097861182434
5.268,-0.00718139098263474
5.272,-0.007188098294110889
5.276,-0.007195743186761122
5.28,-0.007198916538427257
5.284,-0.00719276215943839
5.288,-0.007182568969238078
5.292,-0.007178578239112485
5.296,-0.007188338699540142
5.3,-0.007188170415739665
5.304,-0.007186848185878775
5.308,-0.007181775631321545
5.312,-0.0071792754148573175
5.316,-0.007184131604528221
5.32,-0.0071870405102221775
5.324,-0.007182857455753182
5.328,-0.007183963320727744
5.332,-0.007186102929048092
5.336,-0.007187665564338234
5.34,-0.00721240328300833
5.344,-0.007228318122424854
5.348,-0.007214374607528201
5.352,-0.007172183454694365
5.356,-0.0071531914257834065
5.36,-0.007161533494178473
5.364,-0.007168817778684828
5.368,-0.007174851954959069
5.372,-0.0071696832382301375
5.376,-0.00716489917018801
5.38,-0.007166966656879582
5.384,-0.007173457603469404
5.388,-0.0071749961982166205
5.392,-0.0071757895361331545
5.396,-0.0071745153873581154
5.4,-0.007168793738141902
5.404,-0.007171654562750009
5.408,-0.0071896609294010315
5.412,-0.0071891801185425255
5.416,-0.007195430659703094
5.42,-0.007192545794552063
5.424,-0.007187545361623608
5.428,-0.007187377077823131
5.432,-0.00719093507817607
5.436,-0.007189252240171301
5.44,-0.007178049347168129
5.444,-0.0071715103194924575
5.448,-0.007171149711348578
5.452,-0.00717398649541376
5.456,-0.007173024873696749
5.46,-0.007170140008545717
5.464,-0.00717494811713077
5.468,-0.007180525523089431
5.472,-0.007214350566985276
5.476,-0.0072505315840878
5.48,-0.007231491474090989
5.484,-0.007159634291287378
5.488,-0.00712160215237961
5.492,-0.0071459792629058275
5.496,-0.007178241671511531
5.5,-0.007192521754009138
5.5040000000000004,-0.007184059482899445
5.508,-0.0071745153873581154
5.5120000000000005,-0.007168072521854144
5.516,-0.007171558400578308
5.5200000000000005,-0.0071806938068899075
5.524,-0.007183602712583865
5.5280000000000005,-0.00718088613123331
5.532,-0.0071699957652881655
5.5360000000000005,-0.007159946818345406
5.54,-0.007160860358976565
5.5440000000000005,-0.007157398520795328
5.548,-0.0071662214000489
5.5520000000000005,-0.007173818211613283
5.556,-0.007171534360035383
5.5600000000000005,-0.0071563647774495415
5.564,-0.007164827048559234
5.5680000000000005,-0.007171366076234906
5.572,-0.00717814550933983
5.5760000000000005,-0.007186175050676868
5.58,-0.007185165347874007
5.5840000000000005,-0.007187256875108505
5.588,-0.007191944780978931
5.5920000000000005,-0.007184852820815979
5.596,-0.00718321806389706
5.6000000000000005,-0.007179443698657795
5.604,-0.0071711016302627275
5.6080000000000005,-0.007173842252156208
5.612,-0.0071754529685322
5.6160000000000005,-0.0071749961982166205
5.62,-0.007178650360741261
5.6240000000000006,-0.007182665131409779
5.628,-0.007190670632203892
5.632,-0.007176414590249211
5.636,-0.007158336101969413
5.64,-0.007162807642953512
5.644,-0.00716489917018801
5.648,-0.007158889034456694
5.652,-0.007167471508281013
5.656,-0.0071787224823700365
5.66,-0.007176029941562407
5.664,-0.007177953184996428
5.668,-0.007179611982458271
5.672,-0.007182376644894677
5.676,-0.0071897330510298065
5.68,-0.007188170415739665
5.684,-0.007183121901725359
5.688,-0.007169899603116464
5.692,-0.0071667502919932555
5.696,-0.007164706845844608
5.7,-0.007161437332006772
5.704,-0.007166029075705497
5.708,-0.007174395184643489
5.712,-0.007183530590955089
5.716,-0.007188002131939188
5.72,-0.007187401118366056
5.724,-0.007193507416269073
5.728,-0.007192834281067166
5.732,-0.0071899734564590595
5.736,-0.007193291051382746
5.74,-0.007210095390887505
5.744,-0.007223245567867624
5.748,-0.007203676565926459
5.752,-0.00716804848131122
5.756,-0.007140498019118867
5.76,-0.007130521193804883
5.764,-0.007124751463502819
5.768,-0.007146604317021884
5.772,-0.007171390116777831
5.776,-0.007180453401460655
5.78,-0.007184323928871622
5.784,-0.007180958252862086
5.788,-0.007187641523795309
5.792,-0.007196103794905002
5.796,-0.007191632253920902
5.8,-0.007190670632203892
5.804,-0.0071883146589972165
5.808,-0.007183049780096584
5.812,-0.0071910793214336214
5.816,-0.007190598510575116
5.82,-0.007182665131409779
5.824,-0.007187665564338234
5.828,-0.0071805495636323565
5.832,-0.007181607347521068
5.836,-0.007200166646659371
5.84,-0.007204950714701498
5.844,-0.007200022403401819
5.848,-0.007215768959017867
5.852,-0.007224255270670485
5.856,-0.0072107444855464865
5.86,-0.007171125670805653
5.864,-0.007140377816404242
5.868,-0.007144031978928881
5.872,-0.007152037479722994
5.876,-0.007140305694775466
5.88,-0.007144657033044938
5.884,-0.007150643128233328
5.888,-0.007150835452576731
5.892,-0.007164803008016309
5.896,-0.0071715103194924575
5.9,-0.007175501049618051
5.904,-0.00717033233288912
5.908,-0.0071519172770083675
5.912,-0.007142613586896291
5.916,-0.007140642262376419
5.92,-0.007140449938033017
5.924,-0.007151123939091834
5.928,-0.007150378682261151
5.932,-0.007150234439003599
5.936,-0.0071747557927873675
5.94,-0.007235842812360462
5.944,-0.007259931436371578
5.948,-0.007216273810419297
5.952,-0.007140161451517914
5.956,-0.007096455744479784
5.96,-0.007109533799831128
5.964,-0.0071333579778700635
5.968,-0.007137973762111714
5.972,-0.0071373967890815074
5.976,-0.007146508154850183
5.98,-0.007155138709760353
5.984,-0.007158456304684039
5.988,-0.007155475277361306
5.992,-0.007154417493472595
5.996,-0.0071563647774495415
6.0,-0.007158792872284993
6.0040000000000004,-0.0071592977236864235
6.008,-0.007147301492766717
6.0120000000000005,-0.007140570140747643
6.016,-0.007125015909474997
6.0200000000000005,-0.007132732923754007
6.024,-0.007139848924459885
6.0280000000000005,-0.0071421808571236365
6.032,-0.0071470130062516145
6.0360000000000005,-0.007148022709054475
6.04,-0.007152181722980546
6.0440000000000005,-0.007160067021060032
6.048,-0.007162975926753989
6.0520000000000005,-0.007153335669040958
6.056,-0.007142204897666562
6.0600000000000005,-0.007159129439885946
6.064,-0.007163456737612494
6.0680000000000005,-0.00716581271081917
6.072,-0.007156749426136345
6.0760000000000005,-0.007144056019471806
6.08,-0.00714069034346227
6.0840000000000005,-0.007147229371137941
6.088,-0.007154032844785791
6.0920000000000005,-0.0071539847636999405
6.096,-0.007156412858535392
6.1000000000000005,-0.007161172886034594
6.104,-0.007169899603116464
6.1080000000000005,-0.007170356373432045
6.112,-0.007193964186584653
6.1160000000000005,-0.0072550031250718985
6.12,-0.007299766615998739
6.1240000000000006,-0.00726291246369431
6.128,-0.00714302227612602
6.132000000000001,-0.007081766972752449
6.136,-0.00710520650210458
6.140000000000001,-0.007138791140571173
6.144,-0.007130809680319985
6.148,-0.0071340791941578215
6.152,-0.007143430965355749
6.156,-0.0071484313982842045
6.16,-0.007151484547235713
6.164,-0.007151965358094218
6.168,-0.007155619520618858
6.172,-0.007156028209848588
6.176,-0.007156941750479748
6.18,-0.007158816912827918
6.184,-0.0071585043857698896
6.188,-0.0071561243720202885
6.192,-0.007160884399519491
6.196,-0.0071620623861228284
6.2,-0.007154922344874025
6.204,-0.007149272817286589
6.208,-0.007148335236112503
6.212,-0.007142902073411394
6.216,-0.007138021843197564
6.22,-0.007137685275596611
6.224,-0.0071404258974900915
6.228,-0.007143575208613301
6.232,-0.0071456667358477995
6.236,-0.007150883533662581
6.24,-0.0071494651416299905
6.244,-0.007153768398813613
6.248,-0.007156533061250019
6.252,-0.0071699957652881655
6.256,-0.007174010535956685
6.26,-0.007171197792434429
6.264,-0.007162855724039362
6.268,-0.007143671370785002
6.272,-0.007131506856064818
6.276,-0.007121385787493282
6.28,-0.007120063557632393
6.284,-0.00714069034346227
6.288,-0.007146988965708689
6.292,-0.00714754189819597
6.296,-0.007145594614219024
6.3,-0.007142108735494861
6.304,-0.007141411559750028
6.308,-0.00715028252008945
6.312,-0.007156749426136345
6.316,-0.007153960723157015
6.32,-0.007151748993207891
6.324,-0.007146700479193586
6.328,-0.00717581357667608
6.332,-0.00720509495795905
6.336,-0.007193892064955878
6.34,-0.007163216332183242
6.344,-0.007153768398813613
6.348,-0.007138142045912191
6.352,-0.007126794909651467
6.356,-0.007147469776567194
6.36,-0.007158648629027441
6.364,-0.007155210831389129
6.368,-0.007143430965355749
6.372,-0.007143575208613301
6.376,-0.007159466007486901
6.38,-0.007164730886387533
6.384,-0.00716439431878658
6.388,-0.007159033277714246
6.392,-0.007156028209848588
6.396,-0.007159658331830302
6.4,-0.00716220662938038
6.404,-0.007161269048206295
6.408,-0.007169322630086258
6.412,-0.007168625454341426
6.416,-0.007170308292346194
6.42,-0.007171534360035383
6.424,-0.0071734816440123285
6.428,-0.007172183454694365
6.432,-0.00716489917018801
6.436,-0.00717083718429055
6.44,-0.007194469037986084
6.444,-0.007200166646659371
6.448,-0.007191824578264305
6.452,-0.007164971291816786
6.456,-0.007152710614924901
6.46,-0.0071550906286745024
6.464,-0.007164971291816786
6.468,-0.007172880630439197
6.472,-0.007169250508457483
6.476,-0.007162350872637932
6.48,-0.007154249209672118
6.484,-0.007146700479193586
6.488,-0.007153552033927286
6.492,-0.007163625021412971
6.496,-0.007174154779214236
6.5,-0.007187809807595786
6.5040000000000004,-0.0071757895361331545
6.508,-0.007161966223951128
6.5120000000000005,-0.007151099898548909
6.516,-0.007149056452400261
6.5200000000000005,-0.007172784468267497
6.524,-0.007205527687731705
6.5280000000000005,-0.007203676565926459
6.532,-0.0071577110478533565
6.5360000000000005,-0.007118549003428102
6.54,-0.007124294693187239
6.5440000000000005,-0.007136891937680077
6.548,-0.007141363478664177
6.5520000000000005,-0.00715992277780248
6.556,-0.007167447467738088
6.5600000000000005,-0.007166413724392301
6.564,-0.0071627836024105865
6.5680000000000005,-0.007153047182525855
6.572,-0.007148239073940802
6.5760000000000005,-0.007159682372373227
6.58,-0.007164274116071953
6.5840000000000005,-0.007161461372549697
6.588,-0.00716033146703221
6.5920000000000005,-0.0071592977236864235
6.596,-0.007158624588484516
6.6000000000000005,-0.007156941750479748
6.604,-0.007155234871932054
6.6080000000000005,-0.0071499459524884965
6.612,-0.007146003303448753
6.6160000000000005,-0.007138021843197564
6.62,-0.007143527127527451
6.6240000000000006,-0.007155355074646681
6.628,-0.0071561243720202885
6.632000000000001,-0.00716581271081917
6.636,-0.007166630089278629
6.640000000000001,-0.007143575208613301
6.644,-0.007113139881269917
6.648000000000001,-0.00711662575999408
6.652,-0.007134776369902654
6.656000000000001,-0.007145402289875621
6.66,-0.007140546100204718
6.664,-0.007134752329359729
6.668,-0.007136411126821572
6.672,-0.0071398729650028105
6.676,-0.0071448733979312656
6.68,-0.00714932089837244
6.684,-0.007149994033574347
6.688,-0.007148335236112503
6.692,-0.007148190992854952
6.696,-0.00714251742472459
6.7,-0.007141050951606148
6.704,-0.007151003736377208
6.708,-0.007140305694775466
6.712,-0.007142902073411394
6.716,-0.007144007938385957
6.72,-0.007136867897137152
6.724,-0.007129511491002021
6.728,-0.007127636328653851
6.732,-0.0071401133704320635
6.736,-0.007156557101792944
6.74,-0.007152422128409799
6.744,-0.0071483592766554286
6.748,-0.007141700046265131
6.752,-0.00713621880247817
6.756,-0.007141171154320775
6.76,-0.007140810546176896
6.764,-0.007137372748538582
6.768,-0.007138190126998041
6.772,-0.0071368438565942265
6.776,-0.007142373181467038
6.78,-0.0071476380603676705
6.784,-0.007177881063367652
6.788,-0.007187545361623608
6.792,-0.00714069034346227
6.796,-0.007094147852358959
6.8,-0.007110423299919362
6.804,-0.007127395923224598
6.808,-0.0071357379916196645
6.812,-0.007136411126821572
6.816,-0.007134463842844625
6.82,-0.007131314531721416
6.824,-0.007131506856064818
6.828,-0.00713480041044558
6.832,-0.007141724086808056
6.836,-0.007138743059485322
6.84,-0.007130713518148284
6.844,-0.007132083829095024
6.848,-0.00714297419504017
6.852,-0.007152277885152247
6.856,-0.007150234439003599
6.86,-0.007141267316492476
6.864,-0.007139103667629203
6.868,-0.007157927412739683
6.872,-0.007154561736730147
6.876,-0.007140642262376419
6.88,-0.007126987233994869
6.884,-0.007121914679437638
6.888,-0.0071255928825052035
6.892,-0.007133502221127615
6.896,-0.007131915545294547
6.9,-0.0071287662341713385
6.904,-0.0071301846262039285
6.908,-0.007134487883387551
6.912,-0.007140858627262747
6.916,-0.0071357379916196645
6.92,-0.0071247995445886695
6.924,-0.007121409828036208
6.928,-0.007123140747126827
6.932,-0.007126842990737317
6.936,-0.007140473978575942
6.94,-0.007134295559044148
6.944,-0.007139199829800904
6.948,-0.007144104100557657
6.952,-0.0071462196683350805
6.956,-0.00714571481693365
6.96,-0.007151172020177685
6.964,-0.007165428062132366
6.968,-0.007159249642600573
6.972,-0.007128814315257189
6.976,-0.0071029226505266805
6.98,-0.007110399259376437
6.984,-0.00712205892269519
6.988,-0.007119847192746066
6.992,-0.007121914679437638
6.996,-0.007123044584955125
7.0,-0.007125640963591054
7.0040000000000004,-0.007125160152732549
7.008,-0.007123140747126827
7.0120000000000005,-0.007138310329712668
7.016,-0.0071548021421594
7.0200000000000005,-0.007167591710995639
7.024,-0.007170524657232521
7.0280000000000005,-0.007135401424018711
7.032,-0.0070982347446562535
7.0360000000000005,-0.007096960595881215
7.04,-0.007108716421371669
7.0440000000000005,-0.007112779273126038
7.048,-0.007115087165246863
7.0520000000000005,-0.007115423732847817
7.056,-0.007119510625145112
7.0600000000000005,-0.007120640530662599
7.064,-0.007117010408680884
7.0680000000000005,-0.007111625327065625
7.072,-0.007107971164540985
7.0760000000000005,-0.007110880070234942
7.08,-0.00711205805683828
7.0840000000000005,-0.007128117139512356
7.088,-0.00712068861174845
7.0920000000000005,-0.007113861097557675
7.096,-0.007123837922871659
7.1000000000000005,-0.007135786072705515
7.104,-0.007133454140041765
7.1080000000000005,-0.007119823152203141
7.112,-0.0071148948409034615
7.1160000000000005,-0.0071184528412564
7.12,-0.007116193030221426
7.1240000000000006,-0.007116024746420949
7.128,-0.0071165536383653045
7.132000000000001,-0.007112490786610935
7.136,-0.00712119346314988
7.140000000000001,-0.007122395490296143
7.144,-0.007117154651938436
7.148000000000001,-0.0071204482063191975
7.152,-0.007126001571734933
7.156000000000001,-0.007121025179349404
7.16,-0.007121409828036208
7.164000000000001,-0.007128165220598207
7.168,-0.007127564207025075
7.172,-0.007114606354388358
7.176,-0.007107322069882003
7.18,-0.00711662575999408
7.184,-0.007120424165776272
7.188,-0.007118885571029055
7.192,-0.0071168661654233325
7.196,-0.007112226340638757
7.2,-0.007114245746244479
7.204,-0.00711977507111729
7.208,-0.0071226599362683215
7.212,-0.00712160215237961
7.216,-0.007122034882152265
7.22,-0.0071213136658645065
7.224,-0.007119654868402664
7.228,-0.007129415328830321
7.232,-0.007161461372549697
7.236,-0.007195983592190375
7.24,-0.0071776166173954745
7.244,-0.0071093174349448
7.248,-0.007075155823448001
7.252,-0.007093955528015557
7.256,-0.007107826921283434
7.26,-0.007116745962708707
7.264,-0.007124919747303296
7.268,-0.007119005773743681
7.272,-0.007125160152732549
7.276,-0.0071321559507238
7.28,-0.007126049652820783
7.284,-0.007115856462620472
7.288,-0.007120496287405047
7.292,-0.0071191740575441585
7.296,-0.007115063124703938
7.3,-0.0071098944079750065
7.304,-0.007117371016824764
7.308,-0.007117226773567212
7.312,-0.007109293394401875
7.316,-0.007115087165246863
7.32,-0.007119150017001233
7.324,-0.007119895273831916
7.328,-0.007118020111483746
7.332,-0.007118428800713475
7.336,-0.0071138851381006
7.34,-0.007112418664982159
7.344,-0.007120929017177703
7.348,-0.007125328436533025
7.352,-0.007129006639600591
7.356,-0.007129126842315217
7.36,-0.007124583179702343
7.364,-0.0071250399500179225
7.368,-0.0071290787612293665
7.372,-0.007137613153967835
7.376,-0.007160619953547313
7.38,-0.007142108735494861
7.384,-0.007110807948606167
7.388,-0.007101624461208716
7.392,-0.0070997492988605455
7.396,-0.007107610556397107
7.4,-0.00711109643512127
7.404,-0.007109197232230174
7.408,-0.0071087885430004445
7.412,-0.00710835581322779
7.416,-0.007110976232406643
7.42,-0.007115135246332714
7.424,-0.0071067210563088715
7.428,-0.007107009542823975
7.432,-0.007107850961826359
7.436,-0.007104797812874851
7.44,-0.00711210613792413
7.444,-0.007125689044676905
7.448,-0.0071167940437945575
7.452,-0.007115183327418564
7.456,-0.007116168989678501
7.46,-0.0071143419084161805
7.464,-0.00711205805683828
7.468,-0.0071115532054368494
7.472,-0.0071112406783788214
7.476,-0.007109605921459904
7.48,-0.007109605921459904
7.484,-0.0071098944079750065
7.488,-0.007106672975223021
7.492,-0.00709922040691619
7.496,-0.007101287893607762
7.5,-0.007112995638012366
7.5040000000000004,-0.00711109643512127
7.508,-0.007113332205613319
7.5120000000000005,-0.007122828220068799
7.516,-0.007122131044323966
7.5200000000000005,-0.007120087598175318
7.524,-0.007116337273478977
7.5280000000000005,-0.007113404327242095
7.532,-0.007108019245626836
7.5360000000000005,-0.007105038218304103
7.54,-0.007104220839844645
7.5440000000000005,-0.007106216204907441
7.548,-0.00710794712399806
7.5520000000000005,-0.007106624894137171
7.556,-0.007106336407622068
7.5600000000000005,-0.007108668340285818
7.564,-0.007106841259023498
7.5680000000000005,-0.0071096540025457535
7.572,-0.007107971164540985
7.5760000000000005,-0.0071114089621792985
7.58,-0.007110158853947185
7.5840000000000005,-0.007109149151144323
7.588,-0.007112538867696786
7.5920000000000005,-0.007107802880740509
7.596,-0.007110856029692017
7.6000000000000005,-0.0071117214892373265
7.604,-0.007105230542647506
7.6080000000000005,-0.007096792312080738
7.612,-0.007116745962708707
7.6160000000000005,-0.007118500922342251
7.62,-0.007108043286169761
7.6240000000000006,-0.007104990137218253
7.628,-0.007096143217421756
7.632000000000001,-0.007097056758052916
7.636,-0.007094652703760389
7.640000000000001,-0.007092248649467863
7.644,-0.007093017946841472
7.648000000000001,-0.007084531635188854
7.652,-0.0070838104189010955
7.656000000000001,-0.00708780114902669
7.66,-0.00710150425849409
7.664000000000001,-0.007106745096851797
7.668,-0.0071054469075338324
7.672000000000001,-0.007105975799478189
7.676,-0.007109437637659427
7.68,-0.007107586515854181
7.684,-0.0070960230147071295
7.688,-0.007093763203672155
7.692,-0.007097273122939243
7.696,-0.007098547271714282
7.7,-0.007096455744479784
7.704,-0.007094893109189642
7.708,-0.007094219973987735
7.712,-0.00709835494737088
7.716,-0.007094340176702361
7.72,-0.007089700351917786
7.724,-0.007106504691422545
7.728,-0.007099028082572787
7.732,-0.007106600853594246
7.736,-0.007110880070234942
7.74,-0.0071093174349448
7.744,-0.007113909178643525
7.748,-0.007111745529780252
7.752,-0.0071071297455386016
7.756,-0.00710835581322779
7.76,-0.00710652873196547
7.764,-0.007097994339227001
7.768,-0.007099797379946396
7.772,-0.0070968163526236635
7.776,-0.007097056758052916
7.78,-0.007096696149909037
7.784,-0.00709607109579298
7.788,-0.007097970298684076
7.792,-0.007091551473723031
7.796,-0.007089652270831935
7.8,-0.007098138582484553
7.804,-0.00710383619115784
7.808,-0.0070968163526236635
7.812,-0.0071010955692643605
7.816,-0.00711200997575243
7.82,-0.0071080673267126864
7.824,-0.007110255016118885
7.828,-0.007112683110954337
7.832,-0.007100903244920958
7.836,-0.007111865732494878
7.84,-0.007110206935033035
7.844,-0.007106600853594246
7.848,-0.007111192597292971
7.852,-0.0071040285155012425
7.856,-0.007099532933974218
7.86,-0.007095950893078354
7.864,-0.007096672109366112
7.868,-0.007091864000781059
7.872,-0.007094123811816034
7.876,-0.007099484852888367
7.88,-0.007115928584249248
7.884,-0.007112659070411411
7.888,-0.007109798245803305
7.892,-0.007115543935562444
7.896,-0.007116842124880408
7.9,-0.0071189336521149055
7.904,-0.007108692380828743
7.908,-0.0070936430009575285
7.912,-0.0070855653785346405
7.916,-0.007087656905769138
7.92,-0.0070923688521824894
7.924,-0.00709607109579298
7.928,-0.007104533366902673
7.932,-0.007104557407445598
7.936,-0.0070984751500855064
7.94,-0.0070928496630409945
7.944,-0.007087296297625259
7.948,-0.0071021293126101465
7.952,-0.0071029226505266805
7.956,-0.007101239812521911
7.96,-0.0070968163526236635
7.964,-0.0070949892713613434
7.968,-0.0070973692851109445
7.972,-0.007099941623203948
7.976,-0.007094580582131614
7.98,-0.007098547271714282
7.984,-0.00709744140673972
7.988,-0.007097802014883599
7.992,-0.007097946258141151
7.996,-0.007100398393519528
8.0,-0.007098378987913805
8.004,-0.007099797379946396
8.008000000000001,-0.007098499190628432
8.012,-0.0070917437980664326
8.016,-0.0070978981770553
8.02,-0.007102946691069606
8.024000000000001,-0.007093234311727799
8.028,-0.007089099338344654
8.032,-0.007097777974340674
8.036,-0.007113332205613319
8.040000000000001,-0.007119390422430485
8.044,-0.007102826488354979
8.048,-0.00707638189113719
8.052,-0.0070674868902548425
8.056000000000001,-0.007059914119233384
8.06,-0.007088209838256419
8.064,-0.007095349879505222
8.068,-0.007097777974340674
8.072000000000001,-0.007097777974340674
8.076,-0.007087007811110156
8.08,-0.0070883300409710455
8.084,-0.007094099771273108
8.088000000000001,-0.007097465447282646
8.092,-0.007100398393519528
8.096,-0.007097633731083122
8.1,-0.0070957104876491015
8.104000000000001,-0.007097874136512375
8.108,-0.0070947488659320905
8.112,-0.0070968163526236635
8.116,-0.007097946258141151
8.120000000000001,-0.0070930900684702475
8.124,-0.007094628663217464
8.128,-0.007101263853064837
8.132,-0.007105350745362132
8.136000000000001,-0.007110110772861334
8.14,-0.007105951758935264
8.144,-0.007099965663746873
8.148,-0.007098739596057685
8.152000000000001,-0.0071045814479885235
8.156,-0.007099629096145919
8.16,-0.0070886425680290735
8.164,-0.007081887175467075
8.168000000000001,-0.007069025485002059
8.172,-0.007081718891666598
8.176,-0.007088738730200775
8.18,-0.007088834892372476
8.184000000000001,-0.00708744054088281
8.188,-0.007093522798242902
8.192,-0.007100254150261976
8.196,-0.0071013359746936126
8.2,-0.007138887302742874
8.204,-0.00717312103586845
8.208,-0.007165211697246038
8.212,-0.007111841691951953
8.216,-0.0070851566893049105
8.22,-0.007088834892372476
8.224,-0.0070947488659320905
8.228,-0.007097657771626047
8.232,-0.007089748433003636
8.236,-0.0070927775414122195
8.24,-0.0070955422038486244
8.244,-0.007094051690187258
8.248,-0.007097633731083122
8.252,-0.007104725691246075
8.256,-0.007110375218833512
8.26,-0.007119943354917766
8.264,-0.007122900341697574
8.268,-0.007116818084337483
8.272,-0.007118020111483746
8.276,-0.007120880936091852
8.28,-0.007122539733553695
8.284,-0.007130953923577537
8.288,-0.007128814315257189
8.292,-0.007138406491884369
8.296,-0.0071373246674527316
8.3,-0.007133574342756391
8.304,-0.007123717720157033
8.308,-0.007131627058779445
8.312,-0.007124198531015538
8.316,-0.007130112504575153
8.32,-0.007141868330065608
8.324,-0.0071484313982842045
8.328,-0.0071333579778700635
8.332,-0.007094724825389165
8.336,-0.007079531202260399
8.34,-0.007088714689657849
8.344,-0.007099532933974218
8.348,-0.007104148718215869
8.352,-0.0071128273542118885
8.356,-0.007115808381534621
8.36,-0.007133261815698362
8.364,-0.007156412858535392
8.368,-0.007123116706583901
8.372,-0.007089508027574383
8.376,-0.007082512229583132
8.38,-0.007084723959532256
8.384,-0.007082031418724626
8.388,-0.00708744054088281
8.392,-0.007092128446753237
8.396,-0.0071018889071808936
8.4,-0.007106600853594246
8.404,-0.007119558706230962
8.408,-0.007136507288993273
8.412,-0.007142373181467038
8.416,-0.007137492951253209
8.42,-0.007149248776743664
8.424,-0.0071491526145719625
8.428,-0.007147782303625222
8.432,-0.007137348707995657
8.436,-0.0071298720991459005
8.44,-0.007126578544765139
8.444,-0.007125472679790577
8.448,-0.0071258332879344565
8.452,-0.00711708253030966
8.456,-0.0071096540025457535
8.46,-0.007105687312963085
8.464,-0.007104244880387569
8.468,-0.007102754366726203
8.472,-0.007105350745362132
8.476,-0.007110327137747661
8.48,-0.0071082356105131635
8.484,-0.007103307299213484
8.488,-0.007106576813051321
8.492,-0.007107249948253227
8.496,-0.007110904110777867
8.5,-0.0071181403141983715
8.504,-0.0071096540025457535
8.508000000000001,-0.007095422001133998
8.512,-0.007097465447282646
8.516,-0.007109245313316024
8.52,-0.007109557840374053
8.524000000000001,-0.007096840393166589
8.528,-0.007086791446223829
8.532,-0.007118020111483746
8.536,-0.007137925681025863
8.540000000000001,-0.0071370121403947035
8.544,-0.00714571481693365
8.548,-0.007158624588484516
8.552,-0.007166870494707881
8.556000000000001,-0.007177304090337446
8.56,-0.007155162750303278
8.564,-0.007124102368843837
8.568,-0.007120015476546542
8.572000000000001,-0.007115351611219041
8.576,-0.007119895273831916
8.58,-0.00712347731472778
8.584,-0.007129607653173722
8.588000000000001,-0.0071320117074662485
8.592,-0.007134367680672924
8.596,-0.007130304828918555
8.6,-0.00713028078837563
8.604000000000001,-0.007135136978046533
8.608,-0.00713758911342491
8.612,-0.007142589546353366
8.616,-0.007168433129998024
8.620000000000001,-0.007180477442003581
8.624,-0.007139031546000426
8.628,-0.007084868202789808
8.632,-0.007054000145673769
8.636000000000001,-0.007059048659688075
8.64,-0.00706825618762845
8.644,-0.007083041121527488
8.648,-0.0070984030284567306
8.652000000000001,-0.007108980867343847
8.656,-0.007126073693363709
8.66,-0.007130929883034612
8.664,-0.0071252082338184
8.668000000000001,-0.007139151748715053
8.672,-0.0071452580466180695
8.676,-0.00714073842454812
8.68,-0.007134319599587074
8.684000000000001,-0.007124222571558463
8.688,-0.007122299328124442
8.692,-0.0071189336521149055
8.696,-0.007111673408151476
8.700000000000001,-0.0071048939750465515
8.704,-0.0071024658802111
8.708,-0.007104557407445598
8.712,-0.0071096540025457535
8.716,-0.0071047497317890005
8.72,-0.007113644732671348
8.724,-0.007122539733553695
8.728,-0.007124823585131595
8.732,-0.007117130611395511
8.736,-0.007144031978928881
8.74,-0.0072187499863405995
8.744,-0.0072170911888787565
8.748,-0.0071141015029869276
8.752,-0.007018660547573632
8.756,-0.007015679520250899
8.76,-0.007041450982266782
8.764,-0.007063448079043398
8.768,-0.007071429539294585
8.772,-0.007073472985443233
8.776,-0.007080420702348634
8.78,-0.007113981300272301
8.784,-0.007129559572087872
8.788,-0.007138526694598995
8.792,-0.0071411951948637
8.796,-0.007134175356329523
8.8,-0.00712342923364193
8.804,-0.007117611422254016
8.808,-0.007111841691951953
8.812,-0.007109413597116501
8.816,-0.007110375218833512
8.82,-0.007113500489413796
8.824,-0.007110230975575961
8.828,-0.007102994772155456
8.832,-0.0070979222175982255
8.836,-0.007103403461385186
8.84,-0.007107466313139555
8.844,-0.0071061681238215905
8.848,-0.007114966962532237
8.852,-0.007119895273831916
8.856,-0.007113043719098216
8.86,-0.007122275287581517
8.864,-0.0071208328550060014
8.868,-0.007115904543706322
8.872,-0.007113139881269917
8.876,-0.007114053421901077
8.88,-0.007114606354388358
8.884,-0.007106937421195199
8.888,-0.007100157988090275
8.892,-0.007117058489766735
8.896,-0.007126314098792962
8.9,-0.0071285258287420855
8.904,-0.007131554937150669
8.908,-0.007133574342756391
8.912,-0.007141050951606148
8.916,-0.007146267749420931
8.92,-0.007141868330065608
8.924,-0.007119558706230962
8.928,-0.007113981300272301
8.932,-0.007115327570676116
8.936,-0.007127444004310449
8.94,-0.007130232707289779
8.944,-0.007121674274008385
8.948,-0.007115327570676116
8.952,-0.0071141736246157035
8.956,-0.007117058489766735
8.96,-0.007120616490119674
8.964,-0.007118524962885176
8.968,-0.0071234532741848555
8.972,-0.007123260949841453
8.976,-0.007120904976634777
8.98,-0.007120183760347019
8.984,-0.007124703382416968
8.988,-0.007139007505457501
8.992,-0.007145835019648276
8.996,-0.007146796641365287
9.0,-0.007133718586013942
9.004,-0.007118260516912998
9.008000000000001,-0.007120087598175318
9.012,-0.007128670071999637
9.016,-0.0071331175724408105
9.02,-0.007127395923224598
9.024000000000001,-0.007119270219715859
9.028,-0.007143719451870853
9.032,-0.007140714384005195
9.036,-0.007131891504751622
9.040000000000001,-0.007129126842315217
9.044,-0.007120135679261169
9.048,-0.007116337273478977
9.052,-0.007115832422077546
9.056000000000001,-0.00711200997575243
9.06,-0.007108644299742893
9.064,-0.007108884705172146
9.068,-0.007112562908239711
9.072000000000001,-0.007121626192922535
9.076,-0.00712799693679773
9.08,-0.00714799866851155
9.084,-0.007165043413445562
9.088000000000001,-0.007157927412739683
9.092,-0.0071428780328684684
9.096,-0.007124438936444791
9.1,-0.007077271391225424
9.104000000000001,-0.0070651789981340165
9.108,-0.0070768386614527695
9.112,-0.007088714689657849
9.116,-0.0071076826780258825
9.120000000000001,-0.007117491219539389
9.124,-0.0071242466121013885
9.128,-0.007129799977517125
9.132,-0.007137781437768312
9.136000000000001,-0.007127107436709495
9.14,-0.007141700046265131
9.144,-0.007156797507222196
9.148,-0.007157326399166552
9.152000000000001,-0.007156581142335869
9.156,-0.007151388385064012
9.16,-0.007157927412739683
9.164,-0.007161148845491669
9.168000000000001,-0.007169394751715034
9.172,-0.007199036741141884
9.176,-0.007189396483428853
9.18,-0.007115183327418564
9.184000000000001,-0.0070855653785346405
9.188,-0.007150426763347002
9.192,-0.007209061647541718
9.196,-0.007185117266788156
9.200000000000001,-0.007091695716980582
9.204,-0.0070103184791785655
9.208,-0.0069988992212890655
9.212,-0.007029671116233402
9.216000000000001,-0.007078617661629239
9.22,-0.007095734528192027
9.224,-0.007112586948782636
9.228,-0.007131747261494071
9.232,-0.007142421262552889
9.236,-0.007159634291287378
9.24,-0.007184636455929651
9.244,-0.007199709876343791
9.248,-0.00717631842807751
9.252,-0.007155451236818381
9.256,-0.007140473978575942
9.26,-0.007197161578793713
9.264,-0.007270004423857263
9.268,-0.007192185186408183
9.272,-0.007061765241038629
9.276,-0.007002913991957584
9.28,-0.007053663578072816
9.284,-0.007178866725627588
9.288,-0.007223269608410549
9.292,-0.007131963626380398
9.296,-0.007033974373417024
9.3,-0.006999091545632467
9.304,-0.007015487195907497
9.308,-0.007044263725789038
9.312,-0.007063880808816053
9.316,-0.007070299633777098
9.32,-0.0070787378643438655
9.324,-0.0070880896355417925
9.328,-0.007095013311904269
9.332,-0.007110591583719839
9.336,-0.0071691303057428565
9.34,-0.007216225729333447
9.344,-0.0071489122091427095
9.348,-0.007063952930444829
9.352,-0.00713667557279375
9.356,-0.007253079881637877
9.36,-0.007206176782390687
9.364,-0.007145955222362902
9.368,-0.007140786505633971
9.372,-0.0070246706833049476
9.376,-0.006935985120453649
9.38,-0.006930864484810568
9.384,-0.006972622907871752
9.388,-0.007063279795242921
9.392,-0.007095061392990119
9.396,-0.007046211009765984
9.4,-0.007012434046955988
9.404,-0.00703039233252116
9.408,-0.0070645539440179605
9.412,-0.007088209838256419
9.416,-0.007106456610336694
9.42,-0.007103860231700765
9.424,-0.007090734095263572
9.428,-0.007155042547588652
9.432,-0.0072909918178310175
9.436,-0.007236419785390668
9.44,-0.0070042121812755485
9.444,-0.006960987285095925
9.448,-0.0070266420078248185
9.452,-0.007102345677496474
9.456,-0.007212908134409761
9.46,-0.007174587508986891
9.464,-0.007024382196789844
9.468,-0.0069678147992866995
9.472,-0.00697334412415951
9.476,-0.00702130500729541
9.48,-0.007078040688599033
9.484,-0.007095974933621279
9.488,-0.007111336840550523
9.492,-0.0071349446537031305
9.496,-0.007100831123292182
9.5,-0.007088209838256419
9.504,-0.007106047921106964
9.508000000000001,-0.007124126409386762
9.512,-0.007143935816757181
9.516,-0.007086839527309679
9.52,-0.007036210143909073
9.524000000000001,-0.007053471253729414
9.528,-0.00707094872843608
9.532,-0.00708465183790348
9.536,-0.0071087885430004445
9.540000000000001,-0.0071293191666586195
9.544,-0.007127227639424121
9.548,-0.007135161018589458
9.552,-0.007207018201393071
9.556000000000001,-0.007253440489781757
9.56,-0.0070811178780934665
9.564,-0.006976637678540272
9.568,-0.00705089891563641
9.572000000000001,-0.007155956088219812
9.576,-0.00720052725480325
9.58,-0.007148407357741279
9.584,-0.007085132648761985
9.588000000000001,-0.007089772473546562
9.592,-0.007091383189922554
9.596,-0.007121986801066414
9.6,-0.007191463970120426
9.604000000000001,-0.007207571133880352
9.608,-0.007118597084513952
9.612,-0.007108836624086295
9.616,-0.007221394446062379
9.620000000000001,-0.007297554886049614
9.624,-0.007213340864182415
9.628,-0.007006471992310523
9.632,-0.006937475634115015
9.636000000000001,-0.007029911521662655
9.64,-0.007113740894843049
9.644,-0.007121433868579133
9.648,-0.007115808381534621
9.652000000000001,-0.0071642981566148786
9.656,-0.007195911470561599
9.66,-0.007119294260258784
9.664,-0.007057437943312082
9.668000000000001,-0.007084435473017152
9.672,-0.00711342836778502
9.676,-0.007081574648409046
9.68,-0.007024021588645965
9.684000000000001,-0.007075780877564058
9.688,-0.007211682066720572
9.692,-0.007214206323727725
9.696,-0.007064529903475035
9.700000000000001,-0.006998586694231037
9.704,-0.007069818822918593
9.708,-0.0071528788987253785
9.712,-0.007225337095102122
9.716000000000001,-0.007188506983340618
9.72,-0.007058856335344673
9.724,-0.006999740640291449
9.728,-0.007060611294978217
9.732,-0.007231707838977317
9.736,-0.0072845008712411966
9.74,-0.007107394191510779
9.744,-0.00693608128262535
9.748,-0.006939831607321691
9.752,-0.007015655479707974
9.756,-0.007100470515148304
9.76,-0.00719281024052424
9.764,-0.007185477874932036
9.768,-0.007114630394931283
9.772,-0.007096431703936859
9.776,-0.00715941792640105
9.78,-0.0072320684471211955
9.784,-0.007224495676099738
9.788,-0.007146315830506782
9.792,-0.007044840698819244
9.796,-0.007008323114115768
9.8,-0.007039599860461536
9.804,-0.007069169728259611
9.808,-0.00708780114902669
9.812,-0.007104725691246075
9.816,-0.007086839527309679
9.82,-0.007068520633600629
9.824,-0.007136002437591843
9.828,-0.007198075119424874
9.832,-0.00713977680283111
9.836,-0.0070550338890195555
9.84,-0.007132083829095024
9.844,-0.007176029941562407
9.848,-0.007121914679437638
9.852,-0.0070613805923518255
9.856,-0.007052413469840702
9.86,-0.007120159719804094
9.864,-0.007110327137747661
9.868,-0.007086839527309679
9.872,-0.007115904543706322
9.876,-0.007131603018236519
9.88,-0.007126482382593438
9.884,-0.007157326399166552
9.888,-0.007198195322139499
9.892,-0.0071795879419153455
9.896,-0.007124655301331119
9.9,-0.007094099771273108
9.904,-0.007177592576852549
9.908,-0.007107249948253227
9.912,-0.007018227817800976
9.916,-0.0070731123772993535
9.92,-0.007143911776214255
9.924,-0.0071723757790377665
9.928,-0.007167495548823938
9.932,-0.007081550607866121
9.936,-0.007018828831374108
9.94,-0.007051139321065663
9.944,-0.007131242410092641
9.948,-0.007262311450121179
9.952,-0.007239496974885104
9.956,-0.007078545540000463
9.96,-0.007081791013295374
9.964,-0.007116385354564827
9.968,-0.0070436146311300555
9.972,-0.007007986546514814
9.976,-0.007051620131924168
9.98,-0.007109605921459904
9.984,-0.007127924815168954
9.988,-0.007059505430003655
9.992,-0.007038590157658675
9.996,-0.0070483746586292575
10.0,-0.007084868202789808
10.004,-0.0071627836024105865
10.008000000000001,-0.007146075425077529
10.012,-0.007059962200319235
10.016,-0.007049384361432119
10.02,-0.007009477060176181
10.024000000000001,-0.006970940069866984
10.028,-0.007077223310139573
10.032,-0.00718454029375795
10.036,-0.007088858932915401
10.040000000000001,-0.006983320949473494
10.044,-0.006996254761567286
10.048,-0.0070191173178892115
10.052,-0.007050153658805727
10.056000000000001,-0.007162975926753989
10.06,-0.007187569402166533
10.064,-0.007061476754523527
10.068,-0.007054360753817648
10.072000000000001,-0.007060154524662637
10.076,-0.007005390167878886
10.08,-0.007003226519015612
10.084,-0.007103523664099812
10.088000000000001,-0.007157614885681655
10.092,-0.007033277197672191
10.096,-0.0069372833097716136
10.1,-0.006985051868564114
10.104000000000001,-0.007028421008001288
10.108,-0.007082199702525103
10.112,-0.0071208328550060014
10.116,-0.0070858779055926685
10.120000000000001,-0.007049696888490147
10.124,-0.007235362001501957
10.128,-0.007325201510413667
10.132,-0.007103980434415392
10.136000000000001,-0.006944880121335998
10.14,-0.0069341820797342545
10.144,-0.007045585955649927
10.148,-0.0071476380603676705
10.152000000000001,-0.007087128013824782
10.156,-0.007024574521133246
10.16,-0.007051019118351037
10.164,-0.007082896878269936
10.168000000000001,-0.007097633731083122
10.172,-0.007102634164011577
10.176,-0.007082127580896327
10.18,-0.007090445608748468
10.184000000000001,-0.0071873530372802055
10.188,-0.007303228454179977
10.192,-0.007152951020354154
10.196,-0.006908122131203269
10.200000000000001,-0.0069379083638876704
10.204,-0.007091407230465479
10.208,-0.007182400685437602
10.212,-0.007169779400401839
10.216000000000001,-0.00704943244251797
10.22,-0.0070061113841666444
10.224,-0.0070204635882930265
10.228,-0.007096311501222233
10.232000000000001,-0.007155787804419335
10.236,-0.0071451138033605185
10.24,-0.007072823890784251
10.244,-0.007057990875799363
10.248,-0.007156581142335869
10.252,-0.007223942743612457
10.256,-0.007098499190628432
10.26,-0.0069563234197684235
10.264,-0.007038445914401123
10.268,-0.007122299328124442
10.272,-0.007096335541765158
10.276,-0.0070704198364917245
10.28,-0.007035512968164241
10.284,-0.007058543808286645
10.288,-0.007117371016824764
10.292,-0.00714206065440901
10.296,-0.007130376950547331
10.3,-0.007118332638541774
10.304,-0.007105687312963085
10.308,-0.007183121901725359
10.312,-0.007230097122601324
10.316,-0.00718179967186447
10.32,-0.007050009415548176
10.324,-0.006956708068455228
10.328,-0.006988321382401949
10.332,-0.007043806955473458
10.336,-0.007089580149203159
10.34,-0.007088041554455942
10.344,-0.007072174796125269
10.348,-0.007062462416783462
10.352,-0.007063279795242921
10.356,-0.007075997242450385
10.36,-0.007094772906475016
10.364,-0.007108163488884388
10.368,-0.0071268670312802426
10.372,-0.007122467611924919
10.376,-0.0071184528412564
10.38,-0.007220553027059994
10.384,-0.0073220762398333835
10.388,-0.0072159853239041945
10.392,-0.006923580200304213
10.396,-0.006891413953870211
10.4,-0.007014741939076813
10.404,-0.007085084567676135
10.408,-0.007178337833683232
10.412,-0.007160884399519491
10.416,-0.007043157860814476
10.42,-0.007000221451149954
10.424,-0.007016208412195255
10.428,-0.007108043286169761
10.432,-0.007209133769170494
10.436,-0.007156244574734915
10.44,-0.007052533672555329
10.444,-0.007048254455914632
10.448,-0.007086214473193622
10.452,-0.007132228072352576
10.456,-0.0071421808571236365
10.46,-0.007116986368137959
10.464,-0.007091767838609358
10.468,-0.007147806344168148
10.472,-0.007237669893622784
10.476,-0.007210888728804038
10.48,-0.007100013744832724
10.484,-0.007091238946665002
10.488,-0.007152398087866873
10.492,-0.007136699613336675
10.496,-0.007048783347858988
10.5,-0.007021761777610991
10.504,-0.007059096740773926
10.508000000000001,-0.007119318300801709
10.512,-0.007110471381005213
10.516,-0.007092104406210312
10.52,-0.007128117139512356
10.524000000000001,-0.007165500183761142
10.528,-0.007187881929224562
10.532,-0.007133189694069586
10.536,-0.007051211442694439
10.540000000000001,-0.007066982038853411
10.544,-0.0071322521128955015
10.548,-0.00715393668261409
10.552,-0.007136074559220619
10.556000000000001,-0.0071412192354066255
10.56,-0.007135112937503608
10.564,-0.007132348275067203
10.568,-0.007212018634321526
10.572000000000001,-0.007288203114851687
10.576,-0.007190358105145863
10.58,-0.007074410566617318
10.584,-0.0071261458149924845
10.588000000000001,-0.007223077284067147
10.592,-0.0071936997406124754
10.596,-0.007070660241920977
10.6,-0.007062366254611761
10.604000000000001,-0.0071233811525560796
10.608,-0.007153527993384361
10.612,-0.007141820248979757
10.616,-0.007133069491354961
10.620000000000001,-0.007159081358800096
10.624,-0.007161004602234117
10.628,-0.007145883100734126
10.632,-0.007112322502810458
10.636000000000001,-0.007099028082572787
10.64,-0.007112298462267533
10.644,-0.007158937115542545
10.648,-0.007218966351226927
10.652000000000001,-0.0072588976930257915
10.656,-0.007228125798081453
10.66,-0.0071673032244805365
10.664,-0.007204854552529797
10.668000000000001,-0.0072285104467682566
10.672,-0.007086743365137978
10.676,-0.007025872710451211
10.68,-0.007114630394931283
10.684000000000001,-0.007119630827859738
10.688,-0.007090493689834319
10.692,-0.0071335262616705405
10.696,-0.007151003736377208
10.700000000000001,-0.007135040815874832
10.704,-0.007137973762111714
10.708,-0.007142277019295337
10.712,-0.0071419404516943836
10.716000000000001,-0.007171245873520279
10.72,-0.007192786199981315
10.724,-0.0072229570813525205
10.728,-0.007317268131248331
10.732000000000001,-0.0073257304023580236
10.736,-0.0071406663029193445
10.74,-0.006991037963752504
10.744,-0.007025103413077602
10.748000000000001,-0.00709241693326834
10.752,-0.007157735088396282
10.756,-0.0071901417402595365
10.76,-0.007181366942091815
10.764,-0.007155114669217428
10.768,-0.007155691642247634
10.772,-0.007221803135292108
10.776,-0.0073549877430980695
10.78,-0.00743446577800899
10.784,-0.0071452580466180695
10.788,-0.0069521163247565024
10.792,-0.007035633170878867
10.796,-0.007137781437768312
10.8,-0.007159369845315199
10.804,-0.0071589851966283955
10.808,-0.0071548502232452495
10.812,-0.007171870927636336
10.816,-0.0072040131335274135
10.82,-0.0071971856193366384
10.824,-0.007273754748553604
10.828,-0.007299766615998739
10.832,-0.007233150271552832
10.836,-0.007165596345932843
10.84,-0.007146267749420931
10.844,-0.007214013999384323
10.848,-0.007212475404637106
10.852,-0.007150066155203122
10.856,-0.007182280482722975
10.86,-0.0071486718037134574
10.864,-0.00709967717723177
10.868,-0.007144416627615686
10.872,-0.007160259345403434
10.876,-0.007182064117836648
10.88,-0.007185237469502783
10.884,-0.0072102636746879814
10.888,-0.007240170110087011
10.892,-0.0072280296359097515
10.896,-0.007228125798081453
10.9,-0.007297146196819885
10.904,-0.00726240761229288
10.908,-0.007153600115013137
10.912,-0.007165259778331889
10.916,-0.007177472374137923
10.92,-0.007179611982458271
10.924,-0.0072336551229542625
10.928,-0.007283539249524186
10.932,-0.007248920867711807
10.936,-0.007191968821521857
10.94,-0.00716037954811806
10.944,-0.007258128395652183
10.948,-0.007409944424225222
10.952,-0.007465237672953328
10.956,-0.007286544317389844
10.96,-0.0070600343219480105
10.964,-0.007086286594822398
10.968,-0.007164827048559234
10.972,-0.007191055280890696
10.976,-0.0072008397818612785
10.98,-0.00721372551286922
10.984,-0.007216922905078279
10.988,-0.007193435294640297
10.992,-0.00718321806389706
10.996,-0.007206369106734089
11.0,-0.0072586572875965386
11.004,-0.0073090703061108155
11.008000000000001,-0.007308709697966937
11.012,-0.007279043667997162
11.016,-0.0072102636746879814
11.02,-0.007214302485899426
11.024000000000001,-0.0072395450559709544
11.028,-0.007223606176011503
11.032,-0.007172592143924094
11.036,-0.007181006333947936
11.040000000000001,-0.007214013999384323
11.044,-0.007225289014016271
11.048,-0.007244737813242811
11.052,-0.007267480166850111
11.056000000000001,-0.007308132724936731
11.06,-0.007387105908446222
11.064,-0.007399222342080554
11.068,-0.007231130865947111
11.072000000000001,-0.007157662966767506
11.076,-0.007227140135821516
11.08,-0.007237141001678426
11.084,-0.007230097122601324
11.088000000000001,-0.007276230924474906
11.092,-0.007375927055985974
11.096,-0.007397731828419188
11.1,-0.007282144898034521
11.104000000000001,-0.007212307120836629
11.108,-0.007266951274905754
11.112,-0.007265749247759491
11.116,-0.007269788058970936
11.120000000000001,-0.007364507798096474
11.124,-0.007403814085779279
11.128,-0.007389365719481196
11.132,-0.007300608035001123
11.136000000000001,-0.007255507976473329
11.14,-0.007271446856432779
11.144,-0.007315753577044039
11.148,-0.007412757167747477
11.152000000000001,-0.007422950357947789
11.156,-0.0073050314948993715
11.16,-0.007259306382255521
11.164,-0.007309142427739591
11.168000000000001,-0.007342727066206186
11.172,-0.007345203242127487
11.176,-0.007333832065323837
11.18,-0.0073316684164605635
11.184000000000001,-0.007396481720187074
11.188,-0.007362223946518574
11.192,-0.007346837999046406
11.196,-0.007336885214275346
11.200000000000001,-0.007295823966958995
11.204,-0.007300295507943095
11.208,-0.007364868406240353
11.212,-0.007401818720716482
11.216000000000001,-0.007318037428621939
11.22,-0.007237333326021828
11.224,-0.0073065460491036635
11.228,-0.007372080569117932
11.232000000000001,-0.007402780342433493
11.236,-0.0073515018643739065
11.24,-0.007288683925710192
11.244,-0.007264114490840573
11.248000000000001,-0.007289429182540876
11.252,-0.007350564283199821
11.256,-0.007418454776420765
11.26,-0.007416411330272117
11.264,-0.007355011783640995
11.268,-0.0073440492960670746
11.272,-0.00739340453069264
11.276,-0.007366262757730018
11.28,-0.007338928660423994
11.284,-0.007372248852918408
11.288,-0.007445524427754612
11.292,-0.007383019016148926
11.296,-0.007290703331315915
11.3,-0.007336524606131468
11.304,-0.0073377025927348054
11.308,-0.007338471890108414
11.312,-0.007328879713481232
11.316,-0.007327124753847688
11.32,-0.007367873474106011
11.324,-0.007375951096528899
11.328,-0.0073531606618357495
11.332,-0.0073389767415098445
11.336,-0.0073816246646592615
11.34,-0.0074716084168285225
11.344,-0.007539883558736272
11.348,-0.0075160834212402595
11.352,-0.007361526770773741
11.356,-0.0072836354116958876
11.36,-0.007321643510060728
11.364,-0.00740528055889772
11.368,-0.007412108073088495
11.372,-0.007302723602778546
11.376,-0.007264859747671257
11.38,-0.0073101761710853775
11.384,-0.00733005770008457
11.388,-0.007355757040471678
11.392,-0.007375326042412842
11.396,-0.007377778177791219
11.4,-0.007355300270156098
11.404,-0.007365517500899335
11.408,-0.007394173828066249
11.412,-0.007470646795111512
11.416,-0.007553947276347552
11.42,-0.00745944390210834
11.424,-0.007361622932945442
11.428,-0.007357343716304745
11.432,-0.007369363987767377
11.436,-0.007285029763185552
11.44,-0.007320513604543241
11.444,-0.0073828988134343005
11.448,-0.007391240881829367
11.452,-0.007375806853271347
11.456,-0.007393188165806313
11.46,-0.007393260287435088
11.464,-0.007335106214098876
11.468,-0.007383668110807908
11.472,-0.007483412323404827
11.476,-0.007461607550971613
11.48,-0.007338712295537666
11.484,-0.0073190711719677256
11.488,-0.007357463919019372
11.492,-0.007375975137071824
11.496,-0.00746314614571883
11.5,-0.007517646056530402
11.504,-0.007494903702923103
11.508000000000001,-0.007410208870197399
11.512,-0.007383668110807908
11.516,-0.007440523994826157
11.52,-0.007479421593279233
11.524000000000001,-0.007362392230319051
11.528,-0.007277721438136272
11.532,-0.007318782685452622
11.536,-0.007351093175144177
11.540000000000001,-0.007353304905093301
11.544,-0.0073456359719001425
11.548,-0.0073483285127077715
11.552,-0.007353088540206974
11.556000000000001,-0.00744213471120215
11.56,-0.007542936707687781
11.564,-0.00753923446407729
11.568,-0.007448433333448569
11.572000000000001,-0.007346453350359601
11.576,-0.007313950536324644
11.58,-0.0073901109763118795
11.584,-0.007521732948827697
11.588000000000001,-0.007544379140263297
11.592,-0.007436509224157639
11.596,-0.007322677253406515
11.6,-0.007321114618116372
11.604000000000001,-0.00735275197260602
11.608,-0.007414319803037619
11.612,-0.00749370167577684
11.616,-0.007526709341213226
11.620000000000001,-0.007464877064809449
11.624,-0.00732493706444149
11.628,-0.007296352858903351
11.632,-0.007358978473223663
11.636000000000001,-0.007395640301184689
11.64,-0.007412757167747477
11.644,-0.007497500081559031
11.648,-0.007559524682306212
11.652000000000001,-0.007550557559795089
11.656,-0.007459227537222012
11.66,-0.00742807099359087
11.664,-0.007402059126145735
11.668000000000001,-0.0073702054067697614
11.672,-0.007374917353183113
11.676,-0.00744122117057099
11.68,-0.007475454903696565
11.684000000000001,-0.00740568924812745
11.688,-0.007349770945283288
11.692,-0.00737097470414337
11.696,-0.007398068396020141
11.700000000000001,-0.007435186994296749
11.704,-0.007433672440092456
11.708,-0.007437398724245873
11.712,-0.007526420854698123
11.716000000000001,-0.007614192876918261
11.72,-0.007497836649159985
11.724,-0.00741756527633253
11.728,-0.0073898705708826265
11.732000000000001,-0.007395472017384213
11.736,-0.007476825214643305
11.74,-0.0074971394734151525
11.744,-0.00740842987002093
11.748000000000001,-0.007386288529986762
11.752,-0.007391865935945424
11.756,-0.007422854195776088
11.76,-0.007438168021619482
11.764000000000001,-0.007408213505134603
11.768,-0.0074034294370924755
11.772,-0.0074336243590066055
11.776,-0.007505794068868247
11.78,-0.0076549415971765835
11.784,-0.0075623374258284685
11.788,-0.007399054058280077
11.792,-0.007446534130557473
11.796,-0.007499783933136931
11.8,-0.0074435531032347405
11.804,-0.007345010917784086
11.808,-0.0073453955664708895
11.812,-0.007414271721951768
11.816,-0.007519929908108302
11.82,-0.007555557992723544
11.824,-0.007444442603322975
11.828,-0.007345347485385039
11.832,-0.007384028718951788
11.836,-0.007433359913034428
11.84,-0.007492451567544726
11.844,-0.007523343665203689
11.848,-0.007515818975268082
11.852,-0.007568539885903186
11.856,-0.007600874416137666
11.86,-0.007397226977017757
11.864,-0.007283370965723709
11.868,-0.007347535174791238
11.872,-0.0074448993736385555
11.876,-0.0074755029847824155
11.88,-0.007498533824904817
11.884,-0.007479012904049504
11.888,-0.0074341772914938865
11.892,-0.0074262919934144
11.896,-0.007460261280567798
11.9,-0.007513823610205285
11.904,-0.007554500208834833
11.908,-0.007518054745760131
11.912,-0.007415209303125854
11.916,-0.007378884042765781
11.92,-0.007387514597675951
11.924,-0.007498533824904817
11.928,-0.007563948142204461
11.932,-0.007535724544810202
11.936,-0.0074632903889763815
11.94,-0.0074077807753619475
11.944,-0.007446582211643324
11.948,-0.007489542661850769
11.952,-0.007475070255009761
11.956,-0.007534594639292715
11.96,-0.007589743644763268
11.964,-0.007437639129675126
11.968,-0.007331932862432741
11.972,-0.007406458545501058
11.976,-0.007449130509193402
11.98,-0.007478027241789568
11.984,-0.007486681837242663
11.988,-0.0074835806072053035
11.992,-0.007470622754568587
11.996,-0.0075000724196520345
12.0,-0.007553706870918299
12.004,-0.00763054044610744
12.008000000000001,-0.00772540442849053
12.012,-0.0075880608067585
12.016,-0.007489590742936619
12.02,-0.007564140466547863
12.024000000000001,-0.007460766131969229
12.028,-0.007379845664482792
12.032,-0.007418983668365121
12.036,-0.007458722685820582
12.040000000000001,-0.007481152512369852
12.044,-0.0074788205797061014
12.048,-0.00747182478171485
12.052,-0.007471079524884167
12.056000000000001,-0.007468411024619463
12.06,-0.007477426228216437
12.064,-0.0075190163674771415
12.068,-0.007520699205481911
12.072000000000001,-0.007504880528237087
12.076,-0.00748867720230546
12.08,-0.007529113395505753
12.084,-0.007647945799185332
12.088000000000001,-0.007729082631558095
12.092,-0.00755974104719254
12.096,-0.007390399462826982
12.1,-0.007428696047706926
12.104000000000001,-0.0074670166731297975
12.108,-0.007394846963268156
12.112,-0.007464348172865093
12.116,-0.007660014151733814
12.120000000000001,-0.007646984177468321
12.124,-0.0074374468053317235
12.128,-0.007373547042236373
12.132,-0.007443408859977189
12.136000000000001,-0.0074891339726210395
12.14,-0.007532430990429439
12.144,-0.007541614477826891
12.148,-0.0075306760307958945
12.152000000000001,-0.007490672567368257
12.156,-0.007470646795111512
12.16,-0.007479926444680663
12.164,-0.007490432161939004
12.168000000000001,-0.0074973077572156295
12.172,-0.007510433893652823
12.176,-0.00753969123439287
12.18,-0.007527358435872209
12.184000000000001,-0.00751932889453517
12.188,-0.007490840851168733
12.192,-0.007464372213408018
12.196,-0.007475070255009761
12.200000000000001,-0.007555365668380142
12.204,-0.007640757676850678
12.208,-0.007613808228231457
12.212,-0.007486080823669531
12.216000000000001,-0.007428864331507403
12.22,-0.007468699511134566
12.224,-0.007502933244260141
12.228,-0.007556207087382526
12.232000000000001,-0.007610658917108247
12.236,-0.007643065568971504
12.24,-0.007634218649175006
12.244,-0.0075639962232903115
12.248000000000001,-0.007584719171291888
12.252,-0.007619674120705221
12.256,-0.007478940782420728
12.26,-0.00733859209282304
12.264000000000001,-0.007408718356536033
12.268,-0.007483123836889724
12.272,-0.007538849815390486
12.276,-0.007550629681423865
12.280000000000001,-0.007559043871447707
12.284,-0.0075541636412338785
12.288,-0.007557361033442939
12.292,-0.007553081816802242
12.296,-0.007545509045780784
12.3,-0.007542263572485873
12.304,-0.007550100789479509
12.308,-0.007565126128807799
12.312,-0.007609961741363414
12.316,-0.007639747974047817
12.32,-0.007563058642116227
12.324,-0.007485600012811026
12.328,-0.007519376975621021
12.332,-0.0075858009957235255
12.336,-0.007582531481885689
12.34,-0.00758390179283243
12.344,-0.007487619418416748
12.348,-0.007473050849404039
12.352,-0.007517453732187
12.356,-0.007576377102896822
12.36,-0.007620227053192502
12.364,-0.007630564486650365
12.368,-0.007585296144322095
12.372,-0.007535652423181426
12.376,-0.0075242572058348495
12.38,-0.007549740181335631
12.384,-0.007617077742069293
12.388,-0.007649027623616969
12.392,-0.0075429847887736315
12.396,-0.007463242307890531
12.4,-0.007563803898946909
12.404,-0.007688213708585147
12.408,-0.007711316670336326
12.412,-0.007681169829508045
12.416,-0.007551038370653595
12.42,-0.007503774663262525
12.424,-0.007548105424416712
12.428,-0.0076478015559277805
12.432,-0.007693358384771154
12.436,-0.007562048939313365
12.44,-0.007480599579882571
12.444,-0.00752521882755186
12.448,-0.007546735113469973
12.452,-0.007564621277406368
12.456,-0.007573323953945313
12.46,-0.007565943507267258
12.464,-0.007579117724790302
12.468,-0.007654028056545423
12.472,-0.0077472332414666705
12.476,-0.007761441202335501
12.48,-0.0076148900526630935
12.484,-0.007544403180806222
12.488,-0.0076490757047028195
12.492,-0.0076829969107703655
12.496,-0.007604841105720334
12.5,-0.007528800868447724
12.504,-0.007535676463724351
12.508000000000001,-0.007580199549221939
12.512,-0.007602845740657537
12.516,-0.007622871512914281
12.52,-0.007623977377888843
12.524000000000001,-0.007625780418608238
12.528,-0.0076101300251638915
12.532,-0.007597869348272008
12.536,-0.007623111918343534
12.540000000000001,-0.00769754143924015
12.544,-0.007765720418976198
12.548,-0.007710547372962717
12.552,-0.007634122487003306
12.556000000000001,-0.007641743339110614
12.56,-0.007651912488768
12.564,-0.007698791547472264
12.568,-0.007680352451048587
12.572000000000001,-0.007641743339110614
12.576,-0.007649724799361802
12.58,-0.0076552541242346115
12.584,-0.007621068472194886
12.588000000000001,-0.0076215492830533915
12.592,-0.0076344830951471845
12.596,-0.007648979542531118
12.6,-0.007676602126352246
12.604000000000001,-0.007707061494238554
12.608,-0.007774519257686844
12.612,-0.007732784875168587
12.616,-0.007563659655689358
12.620000000000001,-0.00757298738634436
12.624,-0.007630372162306964
12.628,-0.007695449912005652
12.632,-0.007776129974062836
12.636000000000001,-0.007777356041752025
12.64,-0.007662802854713145
12.644,-0.007616524809582012
12.648,-0.007642055866168642
12.652000000000001,-0.007649556515561325
12.656,-0.007657489894726662
12.66,-0.007671337247451613
12.664,-0.007690064830390393
12.668000000000001,-0.007705619061663039
12.672,-0.007714273657116133
12.676,-0.007709513629616931
12.68,-0.0077846403262583795
12.684000000000001,-0.00781392170754135
12.688,-0.007655398367492163
12.692,-0.007634290770803782
12.696,-0.00774398776817176
12.700000000000001,-0.007758315931755216
12.704,-0.0077186730764714565
12.708,-0.007636214014237803
12.712,-0.007612702363256895
12.716000000000001,-0.007659581421961159
12.72,-0.007667971571442076
12.724,-0.007667586922755272
12.728,-0.007658643840787074
12.732000000000001,-0.007636983311611412
12.736,-0.0076438348663451115
12.74,-0.007666000246922204
12.744,-0.007690040789847467
12.748000000000001,-0.007736535199864928
12.752,-0.007780096663645505
12.756,-0.007791564002620856
12.76,-0.0076792706266169495
12.764000000000001,-0.007573227791773613
12.768,-0.007645421542178179
12.772,-0.0076826843837123375
12.776,-0.007629073972988999
12.780000000000001,-0.007630468324478664
12.784,-0.007674318274774346
12.788,-0.007669558247275144
12.792,-0.007664221246745735
12.796000000000001,-0.007665711760407101
12.8,-0.0076669859091821405
12.804,-0.00766150466539518
12.808,-0.0076962432499221856
12.812,-0.007745622525090677
12.816,-0.0077170142790096135
12.82,-0.007647176501811724
12.824,-0.007611380133396005
12.828,-0.007624746675262452
12.832,-0.0077040083452870455
12.836,-0.007772019041222616
12.84,-0.007749036282186065
12.844,-0.007680905383535868
12.848,-0.007583108454915896
12.852,-0.007557409114528789
12.856,-0.007618928863874538
12.86,-0.007650421975106634
12.864,-0.007660302638248917
12.868,-0.007666264692894382
12.872,-0.007656071502694071
12.876,-0.007633569554516024
12.88,-0.007673236450342708
12.884,-0.007748050619926129
12.888,-0.007755887836919765
12.892,-0.007676409802008843
12.896,-0.007623785053545441
12.9,-0.007571064142910339
12.904,-0.007489879229451723
12.908,-0.007549908465136107
12.912,-0.007643762744716336
12.916,-0.007695281628205175
12.92,-0.007668933193159087
12.924,-0.007637079473783113
12.928,-0.007613904390403158
12.932,-0.00760628353829585
12.936,-0.0076154670256933
12.94,-0.007630612567736216
12.944,-0.007628953770274373
12.948,-0.007622823431828431
12.952,-0.007626116986209192
12.956,-0.0076791985049881745
12.96,-0.007762667270024689
12.964,-0.007747113038752044
12.968,-0.007601066740481067
12.972,-0.007570535250965983
12.976,-0.007566977250613044
12.98,-0.007571689197026396
12.984,-0.0076608074896503476
12.988,-0.007725188063604203
12.992,-0.007717735495297371
12.996,-0.007664870341404717
13.0,-0.007615034295920645
13.004,-0.007615250660806973
13.008000000000001,-0.007616356525781535
13.012,-0.0076381372576718246
13.016,-0.007662273962768789
13.02,-0.007638714230702031
13.024000000000001,-0.007622198377712374
13.028,-0.007644219515031916
13.032,-0.0077141534544015065
13.036,-0.007799882030472997
13.040000000000001,-0.007740261484018344
13.044,-0.007598229956415886
13.048,-0.007644267596117767
13.052,-0.007678934059015996
13.056000000000001,-0.00761368802551683
13.06,-0.007597821267186157
13.064,-0.007651191272480242
13.068,-0.007690425438534272
13.072000000000001,-0.007682227613396757
13.076,-0.007643305974400756
13.08,-0.0076459023530366845
13.084,-0.007654484826861004
13.088000000000001,-0.007641046163365781
13.092,-0.007609360727790283
13.096,-0.007600946537766441
13.1,-0.007628112351271988
13.104000000000001,-0.007692733330655097
13.108,-0.007788751259098599
13.112,-0.007733049321140765
13.116,-0.007561832574427038
13.120000000000001,-0.0075288489495335745
13.124,-0.0075776272111289355
13.128,-0.007638017054957198
13.132,-0.007689247451930934
13.136000000000001,-0.007647080339640022
13.14,-0.007586642414725909
13.144,-0.00758938303661939
13.148,-0.007573107589058986
13.152000000000001,-0.007589623442048642
13.156,-0.007592724672086001
13.16,-0.0075808005627950705
13.164,-0.007574958710864232
13.168000000000001,-0.007575583764980289
13.172,-0.007620539580250531
13.176,-0.007702205304567651
13.18,-0.007733890740143149
13.184000000000001,-0.0076515999617099715
13.188,-0.007502260109058233
13.192,-0.007463170186261755
13.196,-0.0075042795146639555
13.200000000000001,-0.00758714726612734
13.204,-0.007612606201085194
13.208,-0.007689127249216308
13.212,-0.007695570114720278
13.216000000000001,-0.007501538892770475
13.22,-0.00743802377836193
13.224,-0.007511467636998609
13.228,-0.007530195219937389
13.232000000000001,-0.007532791598573317
13.236,-0.007534089787891284
13.24,-0.007535892828610679
13.244,-0.007557505276700491
13.248000000000001,-0.0075859452389810764
13.252,-0.007628857608102672
13.256,-0.007634675419490587
13.26,-0.007539114261362664
13.264000000000001,-0.007448745860506597
13.268,-0.0074792292689358315
13.272,-0.00753207038228556
13.276,-0.007554836776435786
13.280000000000001,-0.007542215491400023
13.284,-0.007510409853109898
13.288,-0.007475551065868266
13.292,-0.007491321662027238
13.296000000000001,-0.007577050238098729
13.3,-0.007711100305449998
13.304,-0.0076573216109261846
13.308,-0.007453746293435052
13.312000000000001,-0.00743360031846368
13.316,-0.0074712237681417186
13.32,-0.007497572203187807
13.324,-0.007521228097426266
13.328,-0.007546975518899225
13.332,-0.007554428087206057
13.336,-0.007548754519075694
13.34,-0.0075320223011997095
13.344,-0.0075102175287664955
13.348,-0.007494807540751402
13.352,-0.0075669291695271935
13.356,-0.007633449351801398
13.36,-0.0075623374258284685
13.364,-0.007438624791935061
13.368,-0.007447207265759381
13.372,-0.0074648049431806736
13.376,-0.007488773364477161
13.38,-0.0075229830570598104
13.384,-0.007668115814699628
13.388,-0.007771129541134382
13.392,-0.00758075248170922
13.396,-0.007336115916901738
13.4,-0.007354002080838134
13.404,-0.007444298360065424
13.408,-0.007505601744524845
13.412,-0.007550485438166313
13.416,-0.007539282545163141
13.42,-0.0074739884305781235
13.424,-0.007436389021443012
13.428,-0.007450645063397693
13.432,-0.00747319509266159
13.436,-0.00748502303978082
13.44,-0.007504880528237087
13.444,-0.00754649470804072
13.448,-0.007541782761627368
13.452,-0.007516756556442167
13.456,-0.007544307018634521
13.46,-0.007584671090206038
13.464,-0.007631598229996153
13.468,-0.007505914271582873
13.472,-0.007311498400946267
13.476,-0.00731534488781431
13.48,-0.007399991639454162
13.484,-0.007429393223451759
13.488,-0.00744076440025541
13.492,-0.007472497916916758
13.496,-0.00747410863329275
13.5,-0.007468314862447762
13.504,-0.007470430430225185
13.508000000000001,-0.00748456626946524
13.512,-0.007567890791244204
13.516,-0.007675063531605028
13.52,-0.007635324514149569
13.524000000000001,-0.007435595683526478
13.528,-0.007313998617410495
13.532,-0.007374292299067056
13.536,-0.007463963524178289
13.540000000000001,-0.007503221730775244
13.544,-0.007455717617954924
13.548,-0.007424392790523305
13.552,-0.0074779551201607924
13.556000000000001,-0.007557409114528789
13.56,-0.00753416190952006
13.564,-0.0074301384802824425
13.568,-0.007415593951812658
13.572000000000001,-0.007422036817316629
13.576,-0.007417637397961306
13.58,-0.0074648049431806736
13.584,-0.007526276611440571
13.588000000000001,-0.007540148004708451
13.592,-0.007571136264539115
13.596,-0.007543946410490642
13.6,-0.007510481974738674
13.604000000000001,-0.0074292730207371335
13.608,-0.007356454216216511
13.612,-0.0073843172054668905
13.616,-0.007419921249539206
13.620000000000001,-0.007435355278097226
13.624,-0.007435427399726001
13.628,-0.007431100101999453
13.632,-0.007436076494384983
13.636000000000001,-0.007455236807096419
13.64,-0.007488388715790356
13.644,-0.007561255601396832
13.648,-0.007571184345624965
13.652000000000001,-0.007451366279685451
13.656,-0.007411795546030467
13.66,-0.007485575972268101
13.664,-0.007475190457724387
13.668000000000001,-0.007478964822963653
13.672,-0.00745994875350977
13.676,-0.007402708220804717
13.68,-0.007447447671188633
13.684000000000001,-0.0074978606897029105
13.688,-0.007453505888005799
13.692,-0.007404511261524112
13.696,-0.007407203802331741
13.700000000000001,-0.007454130942121856
13.704,-0.007488797405020086
13.708,-0.007464107767435841
13.712,-0.007419416398137775
13.716000000000001,-0.007412588883947
13.72,-0.007435186994296749
13.724,-0.0075403643695947774
13.728,-0.007680136086162259
13.732000000000001,-0.007533224328345974
13.736,-0.007337005416989973
13.74,-0.007360396865256254
13.744,-0.007424056222922351
13.748000000000001,-0.00747776279581739
13.752,-0.007489807107822947
13.756,-0.0074648049431806736
13.76,-0.0074365813457864145
13.764000000000001,-0.0074179258844764085
13.768,-0.007449467076794355
13.772,-0.00754836987038889
13.776,-0.007570511210423058
13.780000000000001,-0.007387658840933503
13.784,-0.007307916360050403
13.788,-0.007383884475694236
13.792,-0.00743939408930867
13.796000000000001,-0.0074682908219048365
13.8,-0.0074515586040288535
13.804,-0.007418671141307092
13.808,-0.007428936453136179
13.812000000000001,-0.007459323699393713
13.816,-0.007504543960636133
13.82,-0.007468242740818986
13.824,-0.007374292299067056
13.828,-0.007363834662894566
13.832,-0.007386985705731595
13.836,-0.007418743262935868
13.84,-0.007480263012281618
13.844,-0.007526348733069347
13.848,-0.0075107704612537764
13.852,-0.007468507186791163
13.856,-0.0074256909798412684
13.86,-0.007510914704511328
13.864,-0.007541806802170294
13.868,-0.007372970069206166
13.872,-0.00740842987002093
13.876,-0.007586137563324479
13.88,-0.007498990595220398
13.884,-0.007323927361638629
13.888,-0.007267672491193512
13.892,-0.007319600063912081
13.896,-0.007370782379799968
13.9,-0.007387803084191054
13.904,-0.007400520531398518
13.908,-0.007419704884652878
13.912,-0.007425955425813447
13.916,-0.007431604953400884
13.92,-0.0074411730894851395
13.924,-0.007437975697276079
13.928,-0.007450693144483544
13.932,-0.007456342672070981
13.936,-0.00745492428003839
13.94,-0.007454948320581315
13.944,-0.007466439700099591
13.948,-0.0074635307944056345
13.952,-0.007450596982311842
13.956,-0.007425618858212493
13.96,-0.007432782940004222
13.964,-0.007435908210584507
13.968,-0.007430330804625845
13.972,-0.007427494020560663
13.976,-0.0074340330482363355
13.98,-0.0074322059669740155
13.984,-0.007427638263818215
13.988,-0.007425763101470044
13.992,-0.007426893006987532
13.996,-0.0074403797515686055
14.0,-0.007449707482223608
14.004,-0.007460068956224396
14.008000000000001,-0.007462929780832503
14.012,-0.007458241874962077
14.016,-0.007456991766729963
14.02,-0.007458890969621058
14.024000000000001,-0.00746223260508767
14.028,-0.007462376848345222
14.032,-0.007459347739936639
14.036,-0.007464035645807065
14.040000000000001,-0.007464612618837271
14.044,-0.007456943685644112
14.048,-0.00745441942863696
14.052,-0.00745177496891518
14.056000000000001,-0.007451678806743479
14.06,-0.0074494911173372804
14.064,-0.007460309361653649
14.068,-0.007466151213584488
14.072000000000001,-0.007470214065338858
14.076,-0.0074760559172696965
14.08,-0.007486681837242663
14.084,-0.0074970673517863766
14.088000000000001,-0.007497427959930255
14.092,-0.007499543527707679
14.096,-0.007504303555206881
14.1,-0.007500168581823736
14.104000000000001,-0.007501322527884148
14.108,-0.007505842149954097
14.112,-0.007505265176923891
14.116,-0.007526709341213226
14.120000000000001,-0.007558755384932604
14.124,-0.007563371169174255
14.128,-0.007522502246201305
14.132,-0.007494807540751402
14.136000000000001,-0.007507524987958866
14.14,-0.007507837515016894
14.144,-0.007510457934195748
14.148,-0.0075271901520717315
14.152000000000001,-0.007571905561912723
14.156,-0.007570342926622581
14.16,-0.007539330626248991
14.164,-0.007507885596102745
14.168000000000001,-0.007504568001179058
14.172,-0.007516203623954886
14.176,-0.007531637652512905
14.18,-0.007537191017928643
14.184000000000001,-0.0075469514783562995
14.188,-0.007558490938960426
14.192,-0.00755796204701607
14.196,-0.007556351330640078
14.200000000000001,-0.007547264005414328
14.204,-0.007535171612322921
14.208,-0.0075325031120582146
14.212,-0.007524834178865056
14.216000000000001,-0.007516684434813391
14.22,-0.0075137034074906585
14.224,-0.007513270677718004
14.228,-0.007533128166174273
14.232000000000001,-0.007617414309670246
14.236,-0.007695618195806129
14.24,-0.007593349726202058
14.244,-0.007415329505840481
14.248000000000001,-0.007412468681232374
14.252,-0.007475286619896088
14.256,-0.007475190457724387
14.26,-0.007463074024090054
14.264000000000001,-0.007481272715084478
14.268,-0.007497043311243451
14.272,-0.007502500514487486
14.276,-0.007507500947415941
14.280000000000001,-0.0075074528663300905
14.284,-0.0075098328800796916
14.288,-0.007521516583941369
14.292,-0.007529546125278407
14.296000000000001,-0.007526709341213226
14.3,-0.007519593340507348
14.304,-0.007519136570191768
14.308,-0.007512910069574125
14.312000000000001,-0.007511539758627385
14.316,-0.007505000730951714
14.32,-0.007496322094955693
14.324,-0.007484397985664763
14.328000000000001,-0.007473772065691797
14.332,-0.007472497916916758
14.336,-0.007469613051765726
14.34,-0.007467545565074153
14.344,-0.007468699511134566
14.348,-0.007481296755627404
14.352,-0.007498557865447742
14.356,-0.007509784798993841
14.36,-0.007509279947592411
14.364,-0.007511852285685413
14.368,-0.007521372340683817
14.372,-0.007524858219407981
14.376,-0.007497980892417536
14.38,-0.0074574244965026175
14.384,-0.0074467264549008755
14.388,-0.007462833618660802
14.392,-0.007466006970326937
14.396,-0.007467449402902452
14.4,-0.007477137741701333
14.404,-0.007477017538986707
14.408,-0.0074797822014231125
14.412,-0.007476344403784799
14.416,-0.007476176119984323
14.42,-0.007476945417357931
14.424,-0.007497187554501003
14.428,-0.007498533824904817
14.432,-0.007489566702393694
14.436,-0.007484782634351567
14.44,-0.007486802039957289
14.444,-0.007505866190497023
14.448,-0.0075240168004055965
14.452,-0.0075190163674771415
14.456,-0.00748273918820292
14.46,-0.007449563238966056
14.464,-0.0074536982123492015
14.468,-0.0074755029847824155
14.472,-0.007509400150307036
14.476,-0.007523968719319746
14.48,-0.007513438961518481
14.484,-0.007481104431284001
14.488,-0.007450909509369871
14.492,-0.007455621455783223
14.496,-0.007467858092132182
14.5,-0.007473387417004992
14.504,-0.007484974958694969
14.508000000000001,-0.00752065112439606
14.512,-0.0075584428578745755
14.516,-0.0075259160032966925
14.52,-0.007466535862271292
14.524000000000001,-0.007510962785597179
14.528,-0.007553322222231495
14.532,-0.007475190457724387
14.536,-0.007400929220628248
14.540000000000001,-0.007421387722657647
14.544,-0.007467834051589257
14.548,-0.007484397985664763
14.552,-0.0074888214455630115
14.556000000000001,-0.007499110797935024
14.56,-0.007483075755803873
14.564,-0.0074605978481687525
14.568,-0.007470286186967633
14.572000000000001,-0.007481248674541553
14.576,-0.007487715580588449
14.58,-0.007473748025148871
14.584,-0.007453025077147294
14.588000000000001,-0.007442783805861132
14.592,-0.007451702847286404
14.596,-0.007459828550795144
14.6,-0.007464612618837271
14.604000000000001,-0.007468411024619463
14.608,-0.007468579308419939
14.612,-0.0074622566456305954
14.616,-0.007461487348256987
14.620000000000001,-0.0074638433214636625
14.624,-0.007465598281097207
14.628,-0.007468002335389733
14.632,-0.007464540497208495
14.636000000000001,-0.007471512254656821
14.64,-0.00749923100064965
14.644,-0.0075035582983761975
14.648,-0.0075275026791297595
14.652000000000001,-0.0075624816690860195
14.656,-0.007523584070632942
14.66,-0.007425907344727596
14.664,-0.0073930439225487615
14.668000000000001,-0.007421075195599618
14.672,-0.00744989980656701
14.676,-0.007454996401667166
14.68,-0.007457809145189421
14.684000000000001,-0.007458049550618674
14.688,-0.007455116604381792
14.692,-0.00746547807838258
14.696,-0.0074835806072053035
14.700000000000001,-0.00749466329749385
14.704,-0.007501779298199728
14.708,-0.0075018995009143545
14.712,-0.007484734553265716
14.716000000000001,-0.007488364675247431
14.72,-0.0075328877607450185
14.724,-0.007595729739951659
14.728,-0.007566905128984268
14.732000000000001,-0.007392731395490733
14.736,-0.007345179201584562
14.74,-0.0074127812082904025
14.744,-0.007443577143777666
14.748000000000001,-0.007446894738701352
14.752,-0.007444995535810257
14.756,-0.007441942386858748
14.76,-0.007447423630645708
14.764000000000001,-0.007454948320581315
14.768,-0.007454563671894511
14.772,-0.007461487348256987
14.776,-0.007466175254127413
14.780000000000001,-0.007462953821375428
14.784,-0.007472714281803084
14.788,-0.007462761497032026
14.792,-0.0074568715640153365
14.796000000000001,-0.0074600449156814715
14.8,-0.007489590742936619
14.804,-0.007540821139910358
14.808,-0.007531036638939773
14.812000000000001,-0.007439057521707716
14.816,-0.0074146804111814985
14.82,-0.007435595683526478
14.824,-0.007446053319698968
14.828000000000001,-0.007450284455253814
14.832,-0.007456414793699757
14.836,-0.007465405956753805
14.84,-0.00746908415982137
14.844000000000001,-0.007468338902990687
14.848,-0.0074899273105375735
14.852,-0.0075160834212402595
14.856,-0.007492211162115473
14.86,-0.00746355483494856
14.864,-0.00744807272530469
14.868,-0.007430475047883397
14.872,-0.007441605819257794
14.876,-0.0074788205797061014
14.88,-0.007537287180100344
14.884,-0.007550220992194136
14.888,-0.007434561940180692
14.892,-0.007363906784523342
14.896,-0.00742218106057418
14.9,-0.007454707915152062
14.904,-0.007455958023384176
14.908,-0.007460237240024873
14.912,-0.00746583868652646
14.916,-0.007467425362359527
14.92,-0.0074673292001878255
14.924,-0.007463049983547129
14.928,-0.0074739884305781235
14.932,-0.007504375676835657
14.936,-0.007492211162115473
14.94,-0.0074574244965026175
14.944,-0.00744802464421884
14.948,-0.007453217401490696
14.952,-0.007454443469179885
14.956,-0.007470839119454915
14.96,-0.007501394649512924
14.964,-0.007506755690585258
14.968,-0.007471800741171925
14.972,-0.007438913278450165
14.976,-0.007445740792640939
14.98,-0.007450068090367487
14.984,-0.00745538105035397
14.988,-0.007460694010340453
14.992,-0.0074620162402013425
14.996,-0.007466319497384965
15.0,-0.007488532959047908
15.004,-0.007505457501267293
15.008000000000001,-0.007501586973856326
15.012,-0.007466487781185442
15.016,-0.007477618552559838
15.02,-0.007495841284097188
15.024000000000001,-0.007444298360065424
15.028,-0.007413406262406459
15.032,-0.007434802345609945
15.036,-0.007450500820140141
15.040000000000001,-0.007448962225392925
15.044,-0.0074462456440423696
15.048,-0.007446846657615501
15.052,-0.007462112402373044
15.056000000000001,-0.007465550200011356
15.06,-0.007462545132145698
15.064,-0.0074566311585860835
15.068,-0.007451173955342049
15.072000000000001,-0.007452616387917565
15.076,-0.007455453171982746
15.08,-0.007457232172159215
15.084,-0.007461511388799912
15.088000000000001,-0.007465526159468431
15.092,-0.007456174388270504
15.096,-0.007452063455430284
15.1,-0.007460285321110724
15.104000000000001,-0.007485479810096399
15.108,-0.007529041273876977
15.112,-0.0075392585046202155
15.116,-0.007489037810449338
15.120000000000001,-0.007423335006634593
15.124,-0.007412877370462104
15.128,-0.007420618425284038
15.132,-0.007425498655497867
15.136000000000001,-0.007438720954106763
15.14,-0.007433768602264157
15.144,-0.007438143981076556
15.148,-0.007439730656909623
15.152000000000001,-0.007446918779244277
15.156,-0.007447375549559858
15.16,-0.007445885035898491
15.164,-0.007449346874079729
15.168000000000001,-0.007445692711555089
15.172,-0.007443817549206919
15.176,-0.007443288657262562
15.18,-0.007442062589573374
15.184000000000001,-0.007447543833360334
15.188,-0.007457592780303095
15.192,-0.007456270550442205
15.196,-0.007449611320051907
15.200000000000001,-0.007451294158056675
15.204,-0.007461583510428688
15.208,-0.007459588145365891
15.212,-0.0074716084168285225
15.216000000000001,-0.007514592907578894
15.22,-0.007549163208305424
15.224,-0.007499351203364276
15.228,-0.007395447976841288
15.232000000000001,-0.007377297366932714
15.236,-0.0074146804111814985
15.24,-0.007436629426872264
15.244,-0.0074438656302927685
15.248000000000001,-0.00744263956260358
15.252,-0.007432879102175923
15.256,-0.0074422789544597015
15.26,-0.0074424472382601786
15.264000000000001,-0.007443288657262562
15.268,-0.007437182359359546
15.272,-0.0074379997378190045
15.276,-0.007450981630998647
15.280000000000001,-0.00745172688782933
15.284,-0.007438336305419959
15.288,-0.0074581457127903756
15.292,-0.007492740054059829
15.296000000000001,-0.0074717767006289995
15.3,-0.007430715453312649
15.304,-0.0074076365321043966
15.308,-0.007394967165982783
15.312000000000001,-0.007402900545148119
15.316,-0.007428912412593254
15.32,-0.007438841156821389
15.324,-0.007441028846227588
15.328000000000001,-0.007447471711731558
15.332,-0.007470670835654438
15.336,-0.007484109499149659
15.34,-0.0074582899560479265
15.344000000000001,-0.007429152818022507
15.348,-0.007406073896814254
15.352,-0.007399005977194227
15.356,-0.007439009440621866
15.36,-0.007469276484164772
15.364,-0.007438095899990706
15.368,-0.007417805681761783
15.372,-0.007420666506369889
15.376,-0.007429321101822983
15.38,-0.007433191629233951
15.384,-0.007439874900167175
15.388,-0.007447928482047139
15.392,-0.007448096765847615
15.396,-0.007446822617072577
15.4,-0.007451919212172732
15.404,-0.00746451645666557
15.408,-0.007486297188555859
15.412,-0.0074899273105375735
15.416,-0.007458410158762553
15.42,-0.007430186561368293
15.424,-0.007441245211113915
15.428,-0.007486729918328513
15.432,-0.007501538892770475
15.436,-0.007457472577588468
15.44,-0.007399102139365928
15.444,-0.00738650489487309
15.448,-0.007401289828772127
15.452,-0.007416723857330145
15.456,-0.007421315601028871
15.46,-0.007418214370991512
15.464,-0.007424609155409632
15.468,-0.007436485183614713
15.472,-0.0074420385490304485
15.476,-0.0074395142920232965
15.48,-0.007460309361653649
15.484,-0.007496610581470797
15.488,-0.007514520785950118
15.492,-0.007459467942651264
15.496,-0.007393164125263388
15.5,-0.007403790045236354
15.504,-0.00745583782066955
15.508000000000001,-0.0074670166731297975
15.512,-0.007431460710143332
15.516,-0.007418382654791989
15.52,-0.007428503723363525
15.524000000000001,-0.007436509224157639
15.528,-0.007440644197540784
15.532,-0.007449923847109935
15.536,-0.007458818847992283
15.540000000000001,-0.007445740792640939
15.544,-0.00742802291250502
15.548,-0.007439586413652072
15.552,-0.0074720892276870276
15.556000000000001,-0.007503534257833272
15.56,-0.0074923313648301
15.564,-0.007430114439739517
15.568,-0.007401289828772127
15.572000000000001,-0.007410857964856381
15.576,-0.007425426533869091
15.58,-0.007426989169159233
15.584,-0.007404102572294382
15.588000000000001,-0.007394486355124277
15.592,-0.007402299531574987
15.596,-0.007401818720716482
15.6,-0.007396674044530476
15.604000000000001,-0.007400304166512191
15.608,-0.007404174693923158
15.612,-0.007396000909328569
15.616,-0.007402347612660838
15.620000000000001,-0.007408237545677528
15.624,-0.0074115070595153635
15.628,-0.007411843627116318
15.632,-0.007407420167218069
15.636000000000001,-0.007404391058809486
15.64,-0.007404943991296767
15.644,-0.007400929220628248
15.648,-0.007401482153115529
15.652000000000001,-0.0074000156799970875
15.656,-0.007394967165982783
15.66,-0.00740482378858214
15.664,-0.007419488519766551
15.668000000000001,-0.0074374468053317235
15.672,-0.007449803644395309
15.676,-0.007430426966797546
15.68,-0.007416122843757014
15.684000000000001,-0.007436461143071788
15.688,-0.007455501253068596
15.692,-0.007437206399902471
15.696,-0.007398308801449394
15.700000000000001,-0.007365517500899335
15.704,-0.007371719960974053
15.708,-0.007388307935592485
15.712,-0.007401770639630632
15.716000000000001,-0.007409103005222837
15.72,-0.007412636965032851
15.724,-0.007390711989885011
15.728,-0.007389077232966093
15.732000000000001,-0.007400953261171173
15.736,-0.007404463180438262
15.74,-0.00740203508560281
15.744,-0.00740071285574192
15.748000000000001,-0.007403092869491521
15.752,-0.0074054007616123465
15.756,-0.007401458112572604
15.76,-0.0074029486262339695
15.764000000000001,-0.007419296195423149
15.768,-0.007442086630116299
15.772,-0.007443480981605965
15.776,-0.007405713288670375
15.780000000000001,-0.007360781513943058
15.784,-0.007344409904210954
15.788,-0.007357103310875493
15.792,-0.007372970069206166
15.796000000000001,-0.007382273759318244
15.8,-0.007392346746803929
15.804,-0.0073976356662474865
15.808,-0.007392971800919986
15.812000000000001,-0.007391745733230797
15.816,-0.007391144719657666
15.82,-0.007394438274038426
15.824,-0.007421123276685469
15.828000000000001,-0.007472233470944579
15.832,-0.007497980892417536
15.836,-0.007440572075912008
15.84,-0.007355732999928753
15.844000000000001,-0.007330177902799197
15.848,-0.0073528481347777215
15.852,-0.007365349217098858
15.856,-0.00736595023067199
15.860000000000001,-0.007365325176555933
15.864,-0.007387971367991531
15.868,-0.0073906639087991605
15.872,-0.007392274625175153
15.876,-0.007395207571412035
15.88,-0.007397034652674355
15.884,-0.007403140950577372
15.888,-0.00742761422327529
15.892,-0.0074648049431806736
15.896,-0.007458386118219628
15.9,-0.0074115070595153635
15.904,-0.007393332409063864
15.908,-0.007413598586749862
15.912,-0.007403381356006625
15.916,-0.007375374123498693
15.92,-0.007367705190305534
15.924,-0.007367969636277712
15.928,-0.007370157325683911
15.932,-0.007379845664482792
15.936,-0.007388259854506634
15.94,-0.007394294030780875
15.944,-0.007393693017207744
15.948,-0.007394053625351622
15.952,-0.007396722125616327
15.956,-0.007408117342962902
15.96,-0.007411026248656858
15.964,-0.007416170924842864
15.968,-0.0074178537628476334
15.972,-0.007408598153821407
15.976,-0.007438600751392136
15.98,-0.00746999770045253
15.984,-0.007469661132851577
15.988,-0.00743528315646845
15.992,-0.007392515030604406
15.996,-0.0073470543639327325
16.0,-0.007345107079955787
