0.0,0.01832384606089346
0.004,0.018364041848664504
0.008,0.018383514688433966
0.012,0.018390798972940322
0.016,0.018372960890089777
0.02,0.01834228515731714
0.024,0.018301560477601744
0.028,0.01825965781128301
0.032,0.018214701996012765
0.036000000000000004,0.018171861748519945
0.04,0.018134406582642388
0.044,0.018098874660198848
0.048,0.018082070320694088
0.052000000000000005,0.01807101167094847
0.056,0.01807851232034115
0.06,0.018082334766666267
0.064,0.018101831646978653
0.068,0.01811784264856688
0.07200000000000001,0.01814565755673141
0.076,0.018163663923382433
0.08,0.018181958776548556
0.084,0.018189699831370493
0.088,0.018193690561496084
0.092,0.01819229621000642
0.096,0.018189892155713892
0.1,0.01819001235842852
0.10400000000000001,0.018186286074275103
0.108,0.018187656385221844
0.112,0.0181764775327616
0.116,0.018171308816032666
0.12,0.018151980219520754
0.124,0.018132579501380065
0.128,0.018107409052937316
0.132,0.0180921673487227
0.136,0.018068896103171046
0.14,0.018062549399838774
0.14400000000000002,0.018058270183198076
0.148,0.018060722318576455
0.152,0.01806791044091111
0.156,0.018077117968851485
0.16,0.018090532591803783
0.164,0.018095629186903935
0.168,0.01810226437675131
0.17200000000000001,0.018089498848457994
0.176,0.018071829049407927
0.18,0.01803348438344213
0.184,0.017995596487791914
0.188,0.017948428942572547
0.192,0.017911983479497847
0.196,0.017876619840854785
0.2,0.017857699933572602
0.20400000000000001,0.01784339581053207
0.20800000000000002,0.01784238610772921
0.212,0.0178508483788389
0.216,0.017864287042334125
0.22,0.017888760315032042
0.224,0.017911959438954923
0.228,0.017946313374795124
0.232,0.017970762606950116
0.23600000000000002,0.017997183163624978
0.24,0.018046562438793476
0.244,0.018065482346075655
0.248,0.01808231072612334
0.252,0.018095220497674206
0.256,0.018107553296194866
0.26,0.01811829941888246
0.264,0.018114044242784687
0.268,0.018114212526585165
0.272,0.018110678566775153
0.276,0.018102985593039068
0.28,0.01809291260555338
0.28400000000000003,0.01807243006298106
0.28800000000000003,0.018041393722064543
0.292,0.018012064259695718
0.296,0.017986004311164733
0.3,0.01795059259143582
0.304,0.0179191716018325
0.308,0.017876066908367502
0.312,0.017834476769106797
0.316,0.01779923333317836
0.32,0.017771202060127504
0.324,0.01774406028716488
0.328,0.017721462176815132
0.332,0.017704802080567926
0.336,0.01769482525525394
0.34,0.017690906646757123
0.34400000000000003,0.01768965653852501
0.34800000000000003,0.017694705052539315
0.352,0.017688815119522625
0.356,0.01767669868588829
0.36,0.01766929419866731
0.364,0.017658019184035364
0.368,0.017646191236916135
0.372,0.017640397466071146
0.376,0.01763352187079452
0.38,0.017630805289443965
0.384,0.01763489218174126
0.388,0.01764352273665143
0.392,0.01766301961696382
0.396,0.017682588618904982
0.4,0.01770691764834535
0.404,0.01774336311142005
0.40800000000000003,0.01777968837178012
0.41200000000000003,0.017820869821811098
0.41600000000000004,0.017864070677447795
0.42,0.01790025169455032
0.424,0.01793145631926731
0.428,0.017957732632684624
0.432,0.017972806053098762
0.436,0.01798059518900655
0.44,0.01798194145941036
0.444,0.01796109830869416
0.448,0.017939317576803872
0.452,0.01790921881706144
0.456,0.017868205650830943
0.46,0.0178210621461545
0.464,0.017771803073700635
0.468,0.017725308663683177
0.47200000000000003,0.0176844157001673
0.47600000000000003,0.01765261006187718
0.48,0.017629963870441582
0.484,0.017620708261415353
0.488,0.017607245557377204
0.492,0.017606788787061626
0.496,0.017614866409484512
0.5,0.01762859355949484
0.504,0.017648114480350155
0.508,0.017674871604625973
0.512,0.017704032783194316
0.516,0.01773304971850511
0.52,0.01776004724821018
0.524,0.01778259727747408
0.528,0.017808585104376287
0.532,0.017822312254386612
0.536,0.017828514714461334
0.54,0.01783264968784448
0.544,0.017826831876456565
0.548,0.017816710807885026
0.552,0.017802094157786465
0.556,0.01777877483114896
0.56,0.01775187346361559
0.5640000000000001,0.017724034514908137
0.5680000000000001,0.01770102771532866
0.5720000000000001,0.017685521565141863
0.5760000000000001,0.017669847131154593
0.58,0.017655014116169706
0.584,0.017656745035260324
0.588,0.017672034820560793
0.592,0.0176931664577921
0.596,0.017716533865515454
0.6,0.0177365596377722
0.604,0.017754397720622744
0.608,0.01777024043841049
0.612,0.01778274152073163
0.616,0.017796252305855628
0.62,0.017809570766636224
0.624,0.017815124132051958
0.628,0.017830582201152904
0.632,0.01784284287804479
0.636,0.0178531322304168
0.64,0.017864070677447795
0.644,0.017872460826928713
0.648,0.017877220854427917
0.652,0.017875922665109952
0.656,0.017872917597244294
0.66,0.01786558523165209
0.664,0.01786563331273794
0.668,0.017856017095567833
0.672,0.017856978717284845
0.676,0.017870321218608366
0.68,0.01788907284209007
0.684,0.017900780586494674
0.6880000000000001,0.017904482830105165
0.6920000000000001,0.017909266898147293
0.6960000000000001,0.017916334817767318
0.7000000000000001,0.017925181737563817
0.704,0.017939245455175095
0.708,0.017959992443719597
0.712,0.01796672379573867
0.716,0.017964199538731518
0.72,0.017954823726990664
0.724,0.017938187671286382
0.728,0.01792292192652884
0.732,0.017918883115317398
0.736,0.017932946832928676
0.74,0.017958045159742652
0.744,0.017985499459763302
0.748,0.018011607489380136
0.752,0.018040768667948487
0.756,0.01807166076560745
0.76,0.01810743309348024
0.764,0.018139190650684513
0.768,0.018151307084318846
0.772,0.0181402243940303
0.776,0.0181084427962831
0.78,0.01805896735894291
0.784,0.0179988179205439
0.788,0.017937827063142505
0.792,0.017882004922470045
0.796,0.017836063444939865
0.8,0.017808488942204586
0.804,0.01778730922388743
0.808,0.01779060277826819
0.812,0.01781238351015848
0.8160000000000001,0.017839332958777702
0.8200000000000001,0.01786919131309088
0.8240000000000001,0.01789719854559881
0.8280000000000001,0.017916046331252215
0.8320000000000001,0.017924965372677487
0.836,0.017922633440013738
0.84,0.01791135842538179
0.844,0.01789811208622997
0.848,0.017865561191109162
0.852,0.017835798998967686
0.856,0.017804281847192665
0.86,0.017776490979571062
0.864,0.017752137909587767
0.868,0.017728794542407337
0.872,0.017709730391867604
0.876,0.017696532133801634
0.88,0.017685257119169687
0.884,0.017676650604802443
0.888,0.01767879021312279
0.892,0.017679487388867623
0.896,0.01768792561943439
0.9,0.017711244946071895
0.904,0.017740622489526566
0.908,0.01777603420925548
0.912,0.017810532388353232
0.916,0.017847049973056712
0.92,0.01788522635522203
0.924,0.017915397236593234
0.928,0.017941385063495442
0.932,0.01795643444336666
0.936,0.01794972713189051
0.9400000000000001,0.017926984778283212
0.9440000000000001,0.017907079208741093
0.9480000000000001,0.017893664585788796
0.9520000000000001,0.017885707166080532
0.9560000000000001,0.017882990584729978
0.96,0.017889265166433473
0.964,0.017895804194109143
0.968,0.017908738006202934
0.972,0.017927249224255388
0.976,0.017945856604479542
0.98,0.017957876875942174
0.984,0.017956458483909584
0.988,0.017958069200285576
0.992,0.01794912611831738
0.996,0.0179330670356433
1.0,0.017912560452528054
1.004,0.017891380734210895
1.008,0.01787222042149946
1.012,0.017856810433484367
1.016,0.017843203486188668
1.02,0.017833731512276116
1.024,0.017834140201505845
1.028,0.01782517307899472
1.032,0.017818345564803943
1.036,0.01781043622618153
1.04,0.01780173354964259
1.044,0.017793030873103643
1.048,0.01777973645286597
1.052,0.017764951518966933
1.056,0.01775086376081273
1.06,0.01773898773260765
1.064,0.01773264102927538
1.068,0.01773680004320145
1.072,0.01773360265099239
1.076,0.0177345642727094
1.08,0.017739468543466155
1.084,0.01774278613838984
1.088,0.017743651597935152
1.092,0.017739468543466155
1.096,0.01772848201534931
1.1,0.017715307797826266
1.104,0.017704489553509898
1.108,0.017694897376882717
1.112,0.017694152120052035
1.116,0.017689920984497187
1.12,0.017687540970747588
1.124,0.017698815985379535
1.1280000000000001,0.01771711083854566
1.1320000000000001,0.017736776002658525
1.1360000000000001,0.01776055209961161
1.1400000000000001,0.017787237102258654
1.1440000000000001,0.01781471544282223
1.1480000000000001,0.017841640850898528
1.1520000000000001,0.017867171907485154
1.156,0.017889649815120277
1.16,0.017912969141757783
1.164,0.017922200710241084
1.168,0.017931672684153636
1.172,0.017936721198167943
1.176,0.01793708180631182
1.18,0.01793323531944378
1.184,0.017923138291415168
1.188,0.017903473127302304
1.192,0.017879312381662415
1.196,0.01785349283856068
1.2,0.017829596538892968
1.204,0.017816302118655297
1.208,0.017800387279238772
1.212,0.01780187779290014
1.216,0.017807214793429546
1.22,0.017815436659109986
1.224,0.017822143970586134
1.228,0.017823442159904102
1.232,0.01781952355140728
1.236,0.01781312876698916
1.24,0.017807887928631454
1.244,0.017802262441586943
1.248,0.017798896765577405
1.252,0.01778593891294069
1.256,0.01777411096582146
1.26,0.01776817295171892
1.264,0.017768509519319874
1.268,0.01777293297921812
1.272,0.017780746155668832
1.276,0.017789905602523356
1.28,0.017798079387117947
1.284,0.01780649357714179
1.288,0.017812143104729224
1.292,0.017817624348516185
1.296,0.01781380190219107
1.3,0.017800483441410473
1.304,0.017789424791664853
1.308,0.01777165883044308
1.312,0.017753628423249134
1.316,0.017736223070171246
1.32,0.017719875500982064
1.324,0.017704609756224524
1.328,0.017696700417602112
1.332,0.017699080431351714
1.336,0.017712735459733262
1.34,0.017733121840133887
1.344,0.017752642760989198
1.348,0.01778420799385007
1.352,0.017817888794488364
1.356,0.017850776257210127
1.36,0.01788176451704079
1.364,0.01790469919499149
1.368,0.017916959871883374
1.372,0.017923931629331702
1.3760000000000001,0.017924484561818985
1.3800000000000001,0.01791804169631501
1.3840000000000001,0.017910685290179883
1.3880000000000001,0.017893231856016142
1.3920000000000001,0.017871234759239525
1.3960000000000001,0.017834861417793602
1.4000000000000001,0.017797646657345293
1.4040000000000001,0.017751753260900966
1.408,0.01770441743188112
1.412,0.017675713023628355
1.416,0.0176568171568891
1.42,0.017644412236739664
1.424,0.01763503642499881
1.428,0.017637801087435217
1.432,0.01763640673594555
1.436,0.01764169565538911
1.44,0.017659076967924073
1.444,0.017681867402617225
1.448,0.017711605554215776
1.452,0.01774345927359175
1.456,0.017781034642183936
1.46,0.01782644722776976
1.464,0.017854935271136196
1.468,0.017866811299341277
1.472,0.017881379868353985
1.476,0.017891957707241102
1.48,0.017910012154977974
1.484,0.017941120617523267
1.488,0.017973094539613866
1.492,0.017999995907147234
1.496,0.018022497855325285
1.5,0.018041658168036722
1.504,0.01805576996673385
1.508,0.018063318697212383
1.512,0.018061443534864212
1.516,0.018047668303768038
1.52,0.018023555639213998
1.524,0.017981172162036756
1.528,0.017945856604479542
1.532,0.0179124162092705
1.536,0.017879216219490714
1.54,0.017853324554760203
1.544,0.017837674161315858
1.548,0.017829572498350044
1.552,0.017829259971292016
1.556,0.01783553455299551
1.56,0.01784676148654161
1.564,0.017858709636375463
1.568,0.01785837306877451
1.572,0.01786486401536433
1.576,0.017864984218078958
1.58,0.017861137731210914
1.584,0.017851329189697406
1.588,0.017826976119714115
1.592,0.017792501981159285
1.596,0.01775384478813546
1.6,0.017715668405970143
1.604,0.017682949227048862
1.608,0.0176610963735298
1.612,0.01763032447858546
1.616,0.017608952435924898
1.62,0.017597364894234923
1.624,0.01759320588030885
1.6280000000000001,0.017596379231974987
1.6320000000000001,0.017607606165521084
1.6360000000000001,0.017621717964218214
1.6400000000000001,0.017639075236210257
1.6440000000000001,0.017659990508555237
1.6480000000000001,0.01768266074053376
1.6520000000000001,0.017713168189505916
1.6560000000000001,0.017738771367721323
1.6600000000000001,0.01775761915337473
1.6640000000000001,0.017783414655933538
1.668,0.01780262304973082
1.672,0.017817624348516185
1.676,0.017828178146860378
1.68,0.01783065432278168
1.684,0.01782457206542159
1.688,0.017815941510511416
1.692,0.017807527320487574
1.696,0.01780120465769823
1.7,0.017791780764871527
1.704,0.017776875628257863
1.708,0.017770889533069475
1.712,0.017772764695417644
1.716,0.017777524722916847
1.72,0.017784688804708574
1.724,0.017792189454101257
1.728,0.01779435310296453
1.732,0.017789569034922403
1.736,0.01777990473666645
1.74,0.017771298222299205
1.744,0.01777045680329682
1.748,0.017759061585950246
1.752,0.017757787437175206
1.756,0.01776076846449794
1.76,0.017766105465027347
1.764,0.017771370343927978
1.768,0.017773894600935133
1.772,0.01777435137125071
1.776,0.017770336600582193
1.78,0.017764999600052785
1.784,0.017757595112831804
1.788,0.017755575707226082
1.792,0.0177389396515218
1.796,0.017720861163242
1.8,0.017706845526716572
1.804,0.01769996993143995
1.808,0.017699368917866817
1.812,0.017702710553333428
1.816,0.01770600410771419
1.82,0.017708648567435967
1.824,0.0177116295947587
1.828,0.017711461310958222
1.832,0.01770523481034058
1.836,0.017683454078450293
1.84,0.017656264224401818
1.844,0.017630973573244443
1.848,0.017605202111228558
1.852,0.017582724203593438
1.856,0.01756733825612127
1.86,0.017558467295781845
1.864,0.017561448323104578
1.868,0.01758137793318962
1.872,0.017606933030319176
1.8760000000000001,0.01763748856037719
1.8800000000000001,0.01766838065803615
1.8840000000000001,0.01768727652477541
1.8880000000000001,0.017716125176285725
1.8920000000000001,0.017745598881912097
1.8960000000000001,0.01777507258753847
1.9000000000000001,0.01780257496864497
1.9040000000000001,0.01782649530885561
1.9080000000000001,0.017849141500291207
1.9120000000000001,0.017868446056260194
1.9160000000000001,0.017885923530966862
1.92,0.017902223019070188
1.924,0.017915637642022485
1.928,0.017914050966189417
1.932,0.01791359419587384
1.936,0.017903569289474005
1.94,0.017887991017658433
1.944,0.017870032732093262
1.948,0.017849405946263386
1.952,0.017825774092567852
1.956,0.017804690536422394
1.96,0.017783631020819864
1.964,0.017764807275709383
1.968,0.017752618720446273
1.972,0.01773076586692721
1.976,0.017709081297208624
1.98,0.017692204836075087
1.984,0.017680689416013886
1.988,0.017674799482997196
1.992,0.01767321280716413
1.996,0.017674823523540124
2.0,0.017680400929498782
2.004,0.017690930687300047
2.008,0.01770888897286522
2.012,0.017738747327178398
2.016,0.017763965856707
2.02,0.017789472872750702
2.024,0.01781983607846531
2.028,0.017848396243460525
2.032,0.017871931934984358
2.036,0.017885803328252233
2.04,0.017891428815296748
2.044,0.01789094800443824
2.048,0.017884120490247467
2.052,0.017875201448822195
2.056,0.01786157046098357
2.06,0.017840919634610767
2.064,0.017813273010246714
2.068,0.017790218129581387
2.072,0.01776913457343593
2.076,0.017752714882617975
2.08,0.017741103300385072
2.084,0.01772939555598047
2.088,0.017720476514555196
2.092,0.01771574052759892
2.096,0.017712615257018637
2.1,0.017709177459380325
2.104,0.017704802080567926
2.108,0.017687084200432007
2.112,0.01768088174035729
2.116,0.017670135617669697
2.12,0.017656071900058416
2.124,0.01764229666896224
2.128,0.017627199208005175
2.132,0.017609385165697555
2.136,0.01759397517768246
2.14,0.017581762581876426
2.144,0.01757154535113319
2.148,0.017574117689226194
2.152,0.017567410377750045
2.156,0.01756551117485895
2.16,0.017569021094126037
2.164,0.017577363162521103
2.168,0.017592412542392317
2.172,0.017614337517540157
2.176,0.017643090006878775
2.18,0.017674823523540124
2.184,0.017704850161653775
2.188,0.01773035717769748
2.192,0.017755551666683158
2.196,0.017766970924572658
2.2,0.01777937584472209
2.204,0.017794641589479635
2.208,0.01781324896970379
2.212,0.01783142362015529
2.216,0.017847338459571812
2.22,0.01785933469049152
2.224,0.017871330921411226
2.228,0.017890515274665585
2.232,0.017902799992100395
2.236,0.017908257195344432
2.24,0.01789897754577528
2.244,0.01787080202946687
2.248,0.017844333391706154
2.2520000000000002,0.01781156613169902
2.2560000000000002,0.017774736019937516
2.2600000000000002,0.01773629519180002
2.2640000000000002,0.01770208549921737
2.2680000000000002,0.017674006145080662
2.2720000000000002,0.01765982222475476
2.2760000000000002,0.017661961833075106
2.2800000000000002,0.017677395861633124
2.2840000000000003,0.0177003064990409
2.2880000000000003,0.017715163554568713
2.2920000000000003,0.017736968327001928
2.2960000000000003,0.017752354274474098
2.3000000000000003,0.0177574027884884
2.3040000000000003,0.017754854490938325
2.308,0.017741127340928
2.312,0.017719562973924036
2.316,0.017693454944307203
2.32,0.0176660487253724
2.324,0.017640806155300875
2.328,0.017625420207828705
2.332,0.017604192408425697
2.336,0.01759205193424844
2.34,0.017586955339148284
2.344,0.017586690893176105
2.348,0.01758548886602984
2.352,0.017581113487217442
2.356,0.01758053651418724
2.36,0.017582483798164183
2.364,0.017587965041951144
2.368,0.01760092289458786
2.372,0.0176250355591419
2.376,0.017641551412131556
2.38,0.017657658575891483
2.384,0.017675881307428833
2.388,0.017693551106478904
2.392,0.017711461310958222
2.396,0.017724515325766643
2.4,0.017729876366838974
2.404,0.01773045333986918
2.408,0.017727616555804
2.412,0.017721510257900985
2.416,0.0177186734738358
2.42,0.0177137211219932
2.424,0.01770893705395107
2.428,0.017710812216299242
2.432,0.017709417864809576
2.436,0.017712230608331832
2.44,0.017719683176638662
2.444,0.017725068258253922
2.448,0.017723625825678407
2.452,0.01772026014966887
2.456,0.017722063190388264
2.46,0.01772807332611958
2.464,0.017733987299679194
2.468,0.017722015109302415
2.472,0.017714394257195107
2.476,0.017701917215416894
2.48,0.01768838238974997
2.484,0.0176844157001673
2.488,0.017688767038436776
2.492,0.017695979201314355
2.496,0.017706989769974125
2.5,0.01772624624485726
2.504,0.017745358476482846
2.508,0.017765913140683945
2.512,0.01777040872221097
2.516,0.017771274181756277
2.52,0.01776754789760286
2.524,0.017758340369662486
2.528,0.017743843922278554
2.532,0.017723770068935957
2.536,0.017706364715858066
2.54,0.017694055957880334
2.544,0.017685978335457445
2.548,0.017682925186505934
2.552,0.017686338943601325
2.556,0.01768016052406953
2.56,0.01767513605059815
2.564,0.01766777964446302
2.568,0.01765732200829053
2.572,0.017645878709858107
2.576,0.017637945330692767
2.58,0.017629699424469403
2.584,0.01762590101868721
2.588,0.017627463653977354
2.592,0.017627030924204697
2.596,0.017631766911160977
2.6,0.017632488127448734
2.604,0.017627463653977354
2.608,0.017636190371059225
2.612,0.01764534981791375
2.616,0.01764991752106955
2.62,0.017648715493923287
2.624,0.017652898548392283
2.628,0.017658067265121213
2.632,0.017661288697873197
2.636,0.017663500427822325
2.64,0.017665519833428046
2.644,0.01766225031959021
2.648,0.017647056696461442
2.652,0.017637296236033786
2.656,0.017622150693990868
2.66,0.017607269597920132
2.664,0.017601067137845414
2.668,0.017598807326810437
2.672,0.017599937232327924
2.676,0.017607774449321562
2.68,0.017618977342324732
2.684,0.01762691072149007
2.688,0.017637416438748412
2.692,0.017633161262650642
2.696,0.017631262059759546
2.7,0.01762895416763872
2.704,0.017625348086199928
2.708,0.017620780383044127
2.712,0.017612462355191986
2.716,0.017604504935483725
2.72,0.017591571123389934
2.724,0.01757690639220552
2.728,0.01756387641794003
2.732,0.017553971714254823
2.736,0.017535676861088697
2.74,0.017523344062568037
2.744,0.01752190162999252
2.748,0.017523488305825587
2.7520000000000002,0.017524209522113345
2.7560000000000002,0.0175245460897143
2.7600000000000002,0.01752536346817376
2.7640000000000002,0.017527094387264377
2.7680000000000002,0.017530796630874868
2.7720000000000002,0.017538850212754833
2.7760000000000002,0.017551519578876445
2.7800000000000002,0.01755995780944321
2.7840000000000003,0.017557962444380414
2.7880000000000003,0.01756039053921587
2.7920000000000003,0.017563804296311256
2.7960000000000003,0.017569237459012364
2.8000000000000003,0.01757423789194082
2.8040000000000003,0.01757743528414988
2.8080000000000003,0.017580704797987713
2.8120000000000003,0.01758051247364431
2.816,0.01757976721681363
2.82,0.01758370986585337
2.824,0.017593302042480552
2.828,0.017595008921028246
2.832,0.017606933030319176
2.836,0.01761698197726194
2.84,0.017625059599684825
2.844,0.017628473356780215
2.848,0.01763037255967131
2.852,0.017626958802575924
2.856,0.017620107247842222
2.86,0.017609385165697555
2.864,0.01759873520518166
2.868,0.017593782853339058
2.872,0.017579574892470227
2.876,0.017576497702975792
2.88,0.0175724108106785
2.884,0.01756474187748534
2.888,0.017550822403131612
2.892,0.017539956077729395
2.896,0.017534258469056107
2.9,0.017536902928777885
2.904,0.017540100320986945
2.908,0.017542576496908248
2.912,0.01754981270032875
2.916,0.01754601429454656
2.92,0.017553394741224616
2.924,0.017568660485982157
2.928,0.017590561420587073
2.932,0.01762097270738753
2.936,0.017651888845589422
2.94,0.017682107808046476
2.944,0.017711677675844553
2.948,0.017741343705814327
2.952,0.01777411096582146
2.956,0.017809306320664044
2.96,0.01782279306524512
2.964,0.017806517617684713
2.968,0.01778425607493592
2.972,0.017752859125875528
2.976,0.017713168189505916
2.98,0.017669029752695135
2.984,0.017621116950645083
2.988,0.0175793585275839
2.992,0.017547817335265954
2.996,0.01752755115757996
3.0,0.017519762021672172
3.004,0.017519136967556116
3.008,0.017518127264753255
3.012,0.017527454995408257
3.016,0.017535580698916996
3.02,0.01753904253709823
3.024,0.017533393009510796
3.028,0.01751916100809904
3.032,0.017495697438203985
3.036,0.0174695413275013
3.04,0.01744420259525807
3.044,0.017424561471688124
3.048,0.017414007673343935
3.052,0.017399222739444897
3.056,0.017398982334015645
3.06,0.017403429834456818
3.064,0.017409295726930583
3.068,0.01741554626809115
3.072,0.017417806079126127
3.076,0.017417950322383677
3.08,0.017415353943747748
3.084,0.017416435768179386
3.088,0.017425763498834387
3.092,0.017448698176785096
3.096,0.017465550597375704
3.1,0.01748891800509906
3.104,0.01752211799487885
3.108,0.017559044268812052
3.112,0.01759512912374287
3.116,0.01762457878882632
3.12,0.01764621527745906
3.124,0.017660254954527412
3.128,0.017665880441571923
3.132,0.017666144887544102
3.136,0.01766265900881994
3.14,0.01764513345302742
3.144,0.01761777531517847
3.148,0.017593734772253206
3.152,0.017569021094126037
3.156,0.01754844238938201
3.16,0.017532142901278684
3.164,0.017522574765194428
3.168,0.01751829554855373
3.172,0.01751673291326359
3.176,0.01751855999452591
3.18,0.017522694967909053
3.184,0.017524762454600627
3.188,0.01750891973681288
3.192,0.01749180287025009
3.196,0.01746836334089796
3.2,0.017443168851912282
3.204,0.017424729755488602
3.208,0.0174175897142398
3.212,0.017420402457762055
3.216,0.01743023503981849
3.22,0.017442279351824047
3.224,0.01745627094780655
3.228,0.017475839949747718
3.232,0.017478965220328
3.236,0.01748617738320558
3.24,0.0174902883160458
3.244,0.017488172748268378
3.248,0.01747733046340908
3.2520000000000002,0.01746877203012769
3.2560000000000002,0.017467401719180948
3.2600000000000002,0.017474974490202407
3.2640000000000002,0.017486393748091907
3.2680000000000002,0.01750134696579142
3.2720000000000002,0.017521372738048165
3.2760000000000002,0.017526084684461516
3.2800000000000002,0.017532239063450385
3.2840000000000003,0.017536325955747677
3.2880000000000003,0.017537167374750064
3.2920000000000003,0.017534907563715087
3.2960000000000003,0.017530868752503644
3.3000000000000003,0.017524473968085524
3.3040000000000003,0.01751747817009427
3.3080000000000003,0.017505986790575995
3.3120000000000003,0.017495793600375686
3.3160000000000003,0.017493653992055335
3.3200000000000003,0.017486513950806533
3.3240000000000003,0.017476777530921802
3.3280000000000003,0.017472907003510833
3.332,0.01747120012496314
3.336,0.017469397084243745
3.34,0.01747252235482403
3.344,0.01747942199064358
3.348,0.017485840815604625
3.352,0.017496250370691264
3.356,0.01750891973681288
3.36,0.01751892060266979
3.364,0.01752947440101398
3.368,0.01752774348192336
3.372,0.0175293061172135
3.376,0.017531325522819222
3.38,0.017532575631051338
3.384,0.017531638049877254
3.388,0.017532239063450385
3.392,0.017528849346897923
3.396,0.017523728711254842
3.4,0.017519858183843873
3.404,0.01751211712902194
3.408,0.01750531365537409
3.412,0.017483845450541827
3.416,0.017463266745797804
3.42,0.01744206298693772
3.424,0.017423094998569685
3.428,0.017412180592081616
3.432,0.01740352599662852
3.436,0.017398285158270813
3.44,0.017395111806604677
3.444,0.017388308332956827
3.448,0.0173810480889934
3.452,0.01737996626456176
3.456,0.01736922014187417
3.46,0.017365037087405173
3.464,0.01737215308811105
3.468,0.01737861999415795
3.472,0.017382129913425037
3.476,0.017387418832868595
3.48,0.017395736860720736
3.484,0.017397371617639653
3.488,0.01739540029311978
3.492,0.017391217238650787
3.496,0.01738854873838608
3.5,0.017375999574979095
3.504,0.017364532236003743
3.508,0.017368595087758114
3.512,0.017371479952909143
3.516,0.01737535048032011
3.52,0.017383692548715177
3.524,0.017394198265973517
3.528,0.017406699348294655
3.532,0.017418431133242183
3.536,0.017431893837280336
3.54,0.017446318163035494
3.544,0.01746023763738922
3.548,0.017462882097111
3.552,0.01746627181366346
3.556,0.01746718535429462
3.56,0.017463507151227055
3.564,0.017457136407351862
3.568,0.0174514628392215
3.572,0.017448529892984618
3.576,0.017445452703490183
3.58,0.017442447635624525
3.584,0.017434778702431368
3.588,0.017426003904263642
3.592,0.017394871401175425
3.596,0.01736450819546082
3.6,0.01733880885507371
3.604,0.017318398434130165
3.608,0.017302171067655612
3.612,0.017294333850661973
3.616,0.017289501701533996
3.62,0.017284332984805063
3.624,0.017277144862470412
3.628,0.01727014906447916
3.632,0.017276928497584085
3.636,0.017290270998907606
3.64,0.017326500097095975
3.644,0.017377417967011685
3.648,0.017436173053921034
3.652,0.017493197221739757
3.656,0.01754752884875085
3.66,0.017592845272164974
3.664,0.01762224685616257
3.668,0.017631742870618052
3.672,0.017613135490393894
3.676,0.01757342051348136
3.68,0.01751185268304976
3.684,0.017444274716886844
3.688,0.017387514995040296
3.692,0.01733678944946799
3.696,0.017299959337706484
3.7,0.017280774984452126
3.704,0.017274476362205707
3.708,0.017282289538656417
3.712,0.017305536743665147
3.716,0.01733830400367228
3.72,0.017380663440306594
3.724,0.017422638228254104
3.728,0.017454323663829607
3.732,0.017488725680755657
3.736,0.01751202096685024
3.74,0.017520651521760407
3.744,0.01751459330494324
3.748,0.017489206491614163
3.7520000000000002,0.017449058784928972
3.7560000000000002,0.017399174658359048
3.7600000000000002,0.017353040856485466
3.7640000000000002,0.01731597033929471
3.7680000000000002,0.017287169768870247
3.7720000000000002,0.017269019158961674
3.7760000000000002,0.01726132618522559
3.7800000000000002,0.017257263333471218
3.7840000000000003,0.01726142234739729
3.7880000000000003,0.017269716334706506
3.7920000000000003,0.01727500525415006
3.7960000000000003,0.017292410607227953
3.8000000000000003,0.017312412338941773
3.8040000000000003,0.01733267851662777
3.8080000000000003,0.017363907181887687
3.8120000000000003,0.017387010143638866
3.8160000000000003,0.017411098767649978
3.8200000000000003,0.017436245175549807
3.8240000000000003,0.01745749701549574
3.8280000000000003,0.01747365226034152
3.8320000000000003,0.0174811529097342
3.8360000000000003,0.017473508017083965
3.84,0.017467810408410677
3.844,0.017461511786164258
3.848,0.017459949150874118
3.852,0.017469998097816877
3.856,0.01748170584222148
3.86,0.017492043275679343
3.864,0.017510626615360573
3.868,0.01753353725276835
3.872,0.017562482066450363
3.876,0.017593927096596608
3.88,0.01760243744879215
3.884,0.017600538245901055
3.888,0.017593903056053684
3.892,0.017579743176270705
3.896,0.017559428917498857
3.9,0.01752762327920873
3.904,0.017484518585743736
3.908,0.017451871528451228
3.912,0.017428071390955212
3.916,0.017410257348647595
3.92,0.01740415105074458
3.924,0.017393044319913106
3.928,0.017383115575684973
3.932,0.01738393295414443
3.936,0.017391337441365413
3.94,0.01740453569943138
3.944,0.017425162485261256
3.948,0.017430691810134073
3.952,0.017439442567758867
3.956,0.017448289487555363
3.96,0.017460069353588743
3.964,0.01748084038267617
3.968,0.017495481073317658
3.972,0.017505746385146743
3.976,0.017522142035421774
3.98,0.01753500372588679
3.984,0.017543393875367706
3.988,0.017545581564773906
3.992,0.01752478649514355
3.996,0.017498822708784268
4.0,0.017476969855265204
4.0040000000000004,0.01745466023143056
4.008,0.017436076891749332
4.0120000000000005,0.017423840255400367
4.016,0.017402492253282734
4.0200000000000005,0.017394366549773995
4.024,0.01739323664425651
4.0280000000000005,0.01739835727989959
4.032,0.01741234887588209
4.0360000000000005,0.017419296592787493
4.04,0.017423912377029144
4.0440000000000005,0.017427566539553782
4.048,0.017431340904793053
4.0520000000000005,0.01743790397301165
4.056,0.01744215914910942
4.0600000000000005,0.017431244742621352
4.064,0.017418431133242183
4.0680000000000005,0.01740566560494887
4.072,0.01739196249548147
4.0760000000000005,0.017381096170079248
4.08,0.01737460522348943
4.0840000000000005,0.01736419566840279
4.088,0.017367104574096747
4.0920000000000005,0.017373114709828063
4.096,0.01737679291289563
4.1,0.017381336575508503
4.104,0.017375566845206438
4.108,0.017375735129006916
4.112,0.017376961196696104
4.116,0.017375134115433784
4.12,0.01737693715615318
4.124,0.017382851129712794
4.128,0.017374965831633307
4.132,0.017375951493893243
4.136,0.01738205779179626
4.14,0.017386288927351105
4.144,0.01739448675248862
4.148,0.017402131645138853
4.152,0.017403429834456818
4.156,0.01740814178087017
4.16,0.01741230079479624
4.164,0.01741362302465713
4.168,0.01741718102501007
4.172,0.017409175524215958
4.176,0.017399703550303403
4.18,0.017392683711769226
4.184,0.017384630129889264
4.188,0.017382610724283543
4.192,0.017383283859485447
4.196,0.01737265793951248
4.2,0.01737501391271916
4.204,0.017378980602301825
4.208,0.01738626488680818
4.212,0.017400833455820892
4.216,0.017406843591552208
4.22,0.01741581071406333
4.224,0.01742376813377159
4.228,0.017422542066082403
4.232,0.017414368281487815
4.236,0.017405617523863017
4.24,0.01738078364302122
4.244,0.01736227242496877
4.248,0.01734876163984477
4.252,0.017340419571449703
4.256,0.017337582787384523
4.26,0.017336308638609483
4.264,0.017325802921351142
4.268,0.017326572218724752
4.272,0.017331740935453685
4.276,0.017336092273723156
4.28,0.017348112545185788
4.284,0.017351838829339203
4.288,0.017353882275487852
4.292,0.01735794512724222
4.296,0.017357223910954463
4.3,0.01735231964019771
4.304,0.01734217453108325
4.308,0.01731185940645449
4.312,0.017287025525612693
4.316,0.017267143996613502
4.32,0.01725000308950779
4.324,0.017240338791251832
4.328,0.0172237508166334
4.332,0.017200575733253447
4.336,0.017179756623080168
4.34,0.01716538037841086
4.344,0.017160476107654105
4.348,0.0171690345409355
4.352,0.017180718244797177
4.356,0.017210071747708926
4.36,0.017246661454041176
4.364,0.01728385217394656
4.368,0.01732573079972237
4.372,0.017370614493363835
4.376,0.017395232009319306
4.38,0.017413286457056178
4.384,0.017416363646550612
4.388,0.017403093266855865
4.392,0.017383548305457627
4.396,0.017353353383543497
4.4,0.017318278231415535
4.404,0.01729325202623034
4.408,0.017278322849073748
4.412,0.017270870280766917
4.416,0.017275654348809046
4.42,0.017273274335059444
4.424,0.017283323282002203
4.428,0.017305031892263716
4.432,0.017330635070479123
4.436,0.01736013281664842
4.44,0.017386240846265257
4.444,0.017396193631036314
4.448,0.01740580984820642
4.452,0.017408694713357452
4.456,0.01740068921256334
4.46,0.017383187697313746
4.464,0.017348425072243816
4.468,0.017319191772046695
4.472,0.0172942617290332
4.476,0.017268514307560243
4.48,0.017250339657108742
4.484,0.01724452184572083
4.488,0.01723401612846249
4.492,0.017234641182578544
4.496,0.01723812706130271
4.5,0.017242670723915585
4.5040000000000004,0.017253392806060253
4.508,0.01726719207769935
4.5120000000000005,0.01728481379566357
4.516,0.01731541740680743
4.5200000000000005,0.01735073296436464
4.524,0.017393621292943313
4.5280000000000005,0.017444635325030725
4.532,0.0174814413962493
4.5360000000000005,0.017519641818957547
4.54,0.017557601836236537
4.5440000000000005,0.01759123455578898
4.548,0.01761748682866337
4.5520000000000005,0.017639219479467807
4.556,0.017647417304605322
4.5600000000000005,0.017658307670550467
4.564,0.017664822657683214
4.5680000000000005,0.017664413968453484
4.572,0.0176610963735298
4.5760000000000005,0.017640637871500397
4.58,0.017618256126036975
4.5840000000000005,0.017593542447909807
4.588,0.01756140024201873
4.5920000000000005,0.01752094000827551
4.596,0.01748079230159032
4.6000000000000005,0.017428576242356643
4.604,0.017388019846441727
4.6080000000000005,0.01735292065377084
4.612,0.017326187570037947
4.616,0.017310008284649247
4.62,0.017301401770282002
4.624,0.017291232620624614
4.628,0.01729486274260633
4.632,0.017303733702945752
4.636,0.017316715596125395
4.64,0.01733647692240996
4.644,0.017346261423380544
4.648,0.017356502694666705
4.652,0.017369388425674648
4.656,0.017379918183475913
4.66,0.017384630129889264
4.664,0.017386962062553014
4.668,0.01737383592611582
4.672,0.01736587850640756
4.676,0.01735844997864365
4.68,0.01735419480254588
4.684,0.01735662289738133
4.688,0.017355300667520442
4.692,0.017354026518745402
4.696,0.017354795816119012
4.7,0.01735013195079151
4.704,0.017344794950262102
4.708,0.017337582787384523
4.712,0.0173126287038281
4.716,0.017290174836735905
4.72,0.017276640011068982
4.724,0.017273298375602368
4.728,0.01727861133558885
4.732,0.01728659279584004
4.736,0.017287650579728753
4.74,0.017299646810648456
4.744,0.017314191339118244
4.748,0.0173262356511238
4.752,0.017344386261032373
4.756,0.017354122680917104
4.76,0.017359099073302634
4.764,0.01736585446586463
4.768,0.017363161925057
4.772,0.017355492991863845
4.776,0.017349338612874975
4.78,0.0173285195027017
4.784,0.017315152960835252
4.788,0.017306762811354334
4.792,0.017302002783855134
4.796,0.01730491168954909
4.8,0.017308373527730327
4.804,0.017307580189813796
4.808,0.017318879244988667
4.812,0.017334385395175463
4.816,0.017347727896498983
4.82,0.017363642735915508
4.824,0.017364147587316938
4.828,0.01736948458784635
4.832,0.017374533101860653
4.836,0.017379581615874957
4.84,0.017385062859661918
4.844,0.01739306836045603
4.848,0.017389029549244588
4.852,0.017392250981996572
4.856,0.017390351779105476
4.86,0.017382226075596738
4.864,0.017373619561229493
4.868,0.017356406532495004
4.872,0.01733638076023826
4.876,0.017323879677917122
4.88,0.01731202769025497
4.884,0.017301281567567377
4.888,0.017301185405395676
4.892,0.017288035228415554
4.896,0.017283828133403633
4.9,0.017289597863705698
4.904,0.017301089243223974
4.908,0.01732080248842269
4.912,0.01734871355875892
4.916,0.017364003344059388
4.92,0.017386312967894033
4.924,0.01740876683498623
4.928,0.01742763866118256
4.932,0.017445813311634063
4.936,0.017447616352353458
4.94,0.017449419393072853
4.944,0.017449707879587956
4.948,0.017443553500599087
4.952,0.01743420172940116
4.956,0.017422998836397984
4.96,0.01739592918506414
4.964,0.01737662462909515
4.968,0.017360301100448897
4.972,0.017345924855779588
4.976,0.017334770043862267
4.98,0.01732272573185671
4.984,0.01730673877081141
4.988,0.017302555716342413
4.992,0.01730125752702445
4.996,0.017305993513980728
5.0,0.01732145158308167
5.0040000000000004,0.0173240479617176
5.008,0.0173239517995459
5.0120000000000005,0.017325394232121413
5.016,0.017325802921351142
5.0200000000000005,0.017329216678446533
5.024,0.017340323409278
5.0280000000000005,0.017346670112610273
5.032,0.01736561406043538
5.0360000000000005,0.017384942656947292
5.04,0.0174039827669441
5.0440000000000005,0.01742261418771118
5.048,0.017426628958379698
5.0520000000000005,0.017429970593846315
5.056,0.017438384783870158
5.0600000000000005,0.01745038101478986
5.064,0.017464132205343114
5.0680000000000005,0.017478820977070448
5.072,0.017483821409998903
5.0760000000000005,0.017501827776649926
5.08,0.017527310752150704
5.0840000000000005,0.01755637576854735
5.088,0.01758195490621983
5.0920000000000005,0.017597893786179278
5.096,0.017585320582229363
5.1000000000000005,0.017560198214872466
5.104,0.01752317577876756
5.1080000000000005,0.017480215328560113
5.112,0.017442038946394796
5.1160000000000005,0.01739835727989959
5.12,0.01736200797899659
5.124,0.017343064031171484
5.128,0.017334746003319343
5.132,0.017335082570920295
5.136,0.01734611718012299
5.14,0.017349963666991035
5.144,0.017358185532671475
5.148,0.01736323404668578
5.152,0.017363113843971153
5.156,0.017358930789502156
5.16,0.017343520801487062
5.164,0.017315104879749403
5.168,0.017287626539185825
5.172,0.017262191644770896
5.176,0.01724127637242592
5.18,0.01723447289877807
5.184,0.01722288535708809
5.188,0.01722562597898157
5.192,0.017234785425836098
5.196,0.01724344002128919
5.2,0.017253585130403655
5.204,0.017263826401689816
5.208,0.017256734441526863
5.212,0.017252815833030045
5.216,0.017249426116477583
5.22,0.01724908954887663
5.224,0.017264138928747844
5.228,0.01728577541738058
5.232,0.01731344608228756
5.236,0.01735424288363173
5.24,0.017394919482261274
5.244,0.017433672837456806
5.248,0.01747372438197029
5.252,0.01749120185667696
5.256,0.017507260939351035
5.26,0.017524017197769942
5.264,0.01753267179322304
5.268,0.017535147969144342
5.272,0.017532623712137187
5.276,0.01751875231886931
5.28,0.017505289614831165
5.284,0.017487163045465517
5.288,0.017464709178373318
5.292,0.01744629412249257
5.296,0.01742261418771118
5.3,0.017407059956438535
5.304,0.017396698482437745
5.308,0.017388981468158735
5.312,0.017386337008436958
5.316,0.017391217238650787
5.32,0.01737922100773108
5.324,0.017366719925409942
5.328,0.01735501218100534
5.332,0.017341068666108687
5.336,0.017333327611286753
5.34,0.017330731232650824
5.344,0.017329192637903605
5.348,0.017338015517157176
5.352,0.017351069531965597
5.356,0.01736018089773427
5.36,0.017371624196166696
5.364,0.017369340344588795
5.368,0.017368595087758114
5.372,0.017367561344412325
5.376,0.017362224343882918
5.38,0.01735506026209119
5.384,0.017351165694137298
5.388,0.017337029854897244
5.392,0.017333568016716004
5.396,0.01733551530069295
5.4,0.01734282362574223
5.404,0.01735835381647195
5.408,0.0173516465049958
5.412,0.017355036221548263
5.416,0.01733880885507371
5.42,0.01730527229769297
5.424,0.017277842038215245
5.428,0.017257623941615098
5.432,0.017224544154549933
5.436,0.017201393111712905
5.44,0.01718422816406427
5.444,0.01716934706799353
5.448,0.017167856554332162
5.452,0.017178458433762204
5.456,0.01718990173219463
5.46,0.017218197451217665
5.464,0.017251108954482352
5.468,0.017286616836382964
5.472,0.017332462151741442
5.476,0.017370109641962405
5.48,0.017403261550656343
5.484,0.017434802742974292
5.488,0.017458410556126902
5.492,0.017474373476629276
5.496,0.01748516768040272
5.5,0.01747398882794247
5.5040000000000004,0.01746220896190909
5.508,0.017443673703313713
5.5120000000000005,0.017421171755135665
5.516,0.017399487185417076
5.5200000000000005,0.017369003776987843
5.524,0.017335803787208053
5.5280000000000005,0.017311186271252586
5.532,0.017287890985158004
5.5360000000000005,0.017265966010010163
5.54,0.01725476311700699
5.5440000000000005,0.0172371654395857
5.548,0.01723132358765486
5.5520000000000005,0.0172305062091954
5.556,0.017233511277061058
5.5600000000000005,0.01724694994055628
5.564,0.017264884185578526
5.5680000000000005,0.017270509672623037
5.572,0.01728224145757057
5.5760000000000005,0.017294069404689798
5.58,0.017308589892616657
5.5840000000000005,0.01734354484202999
5.588,0.017370109641962405
5.5920000000000005,0.017372201169196903
5.596,0.01737306662874221
5.6000000000000005,0.017367681547126954
5.604,0.017357416235297865
5.6080000000000005,0.017349915585905182
5.612,0.01732688474578278
5.6160000000000005,0.01731202769025497
5.62,0.01730272400014289
5.6240000000000006,0.01729760336449981
5.628,0.017304887649006166
5.632,0.01731130647396721
5.636,0.017309407271076115
5.64,0.017318807123359894
5.644,0.017328783948673876
5.648,0.017333664178887705
5.652,0.017342559179770053
5.656,0.01733606823318023
5.66,0.017339193503760515
5.664,0.01735734411366909
5.668,0.017362729195284348
5.672,0.01736265707365557
5.676,0.017366719925409942
5.68,0.017353257221371796
5.684,0.017349530937218378
5.688,0.017345083436777205
5.692,0.01733830400367228
5.696,0.01733623651698071
5.7,0.01732957728659041
5.704,0.017317028123183423
5.708,0.01731289314980028
5.712,0.01730969575759122
5.716,0.017305705027465625
5.72,0.017312075771340817
5.724,0.017308493730444956
5.728,0.017305993513980728
5.732,0.017303853905660378
5.736,0.017302098946026835
5.74,0.017300055499878186
5.744,0.01729791589155784
5.748,0.01728197701159839
5.752,0.017269259564390925
5.756,0.017250339657108742
5.76,0.017228005992731173
5.764,0.017216658856470446
5.768,0.017208797598933886
5.772,0.017220529383881415
5.776,0.017248344292045945
5.78,0.01728115963313893
5.784,0.01731606650146641
5.788,0.01735881058678753
5.792,0.017395544536377334
5.796,0.01744475552774535
5.8,0.01749750047892338
5.804,0.01753820111809585
5.808,0.0175658477424599
5.812,0.017573949405425716
5.816,0.017554861214343055
5.82,0.01752687802237805
5.824,0.017489350734871713
5.828,0.017448842420042646
5.832,0.017419224471158717
5.836,0.017385375386719946
5.84,0.017364868803604695
5.844,0.017359772208504543
5.848,0.01735652673520963
5.852,0.01735537278914922
5.856,0.017356863302810586
5.86,0.01734058785525018
5.864,0.017323927759002974
5.868,0.017300151662049887
5.872,0.017270004821221607
5.876,0.017238848277590466
5.88,0.017199301584478407
5.884,0.017156172850470483
5.888,0.01712208336060246
5.892,0.01709736968247529
5.896,0.017079026748223314
5.9,0.01707174246371696
5.904,0.017059313503024597
5.908,0.01706219836817563
5.912,0.017064938990069112
5.916,0.01706539576038469
5.92,0.017068833558023005
5.924,0.01707128569340138
5.928,0.017068569112050826
5.932,0.017073497423350504
5.936,0.01708438778929565
5.94,0.017102562439747147
5.944,0.017129824415424395
5.948,0.017151340701342506
5.952,0.017173578203548374
5.956,0.017207162842014966
5.96,0.0172397377776787
5.964,0.01726719207769935
5.968,0.01729298758025816
5.972,0.017299045797075325
5.976,0.017299646810648456
5.98,0.01728952574207692
5.984,0.01727531778120809
5.988,0.017264066807119068
5.992,0.017250363697651667
5.996,0.017232573695886974
6.0,0.017224880722150886
6.0040000000000004,0.01721740411330113
6.008,0.017215072180637378
6.0120000000000005,0.017221370802883797
6.016,0.017211201653226413
6.0200000000000005,0.01720182584148556
6.024,0.017187593840073803
6.0280000000000005,0.017166726648814676
6.032,0.01714121963277097
6.0360000000000005,0.017103908710150963
6.04,0.017049480920968165
6.0440000000000005,0.01700382792995309
6.048,0.01696209354743483
6.0520000000000005,0.016929350327970622
6.056,0.01691394033995553
6.0600000000000005,0.016900958446775888
6.064,0.016890813337661428
6.0680000000000005,0.016893457797383205
6.072,0.01690540594721706
6.0760000000000005,0.016930167706430084
6.08,0.016963608101639122
6.0840000000000005,0.016982624171093006
6.088,0.017001928727061993
6.0920000000000005,0.01701935812068281
6.096,0.017032724662549254
6.1000000000000005,0.01704205239320426
6.104,0.01704962516422572
6.1080000000000005,0.017042124514833036
6.112,0.017033590122094565
6.1160000000000005,0.017018059931364845
6.12,0.01699752930770667
6.1240000000000006,0.016974378264869642
6.128,0.016936514409762352
6.132000000000001,0.016900862284604187
6.136,0.01686487359184507
6.140000000000001,0.0168339814941861
6.144,0.01681739351956767
6.148,0.016818066654769575
6.152,0.016816383816764806
6.156,0.01683114471012092
6.16,0.016851026239120118
6.164,0.01687571587670436
6.168,0.01691247386683709
6.172,0.016947933667651852
6.176,0.016967598831764717
6.18,0.01698586964438792
6.184,0.01700072669991573
6.188,0.017012698890292513
6.192,0.017026426040302838
6.196,0.017023901783295683
6.2,0.01701950236394036
6.204,0.017017482958334638
6.208,0.017018108012450697
6.212,0.01702224298583384
6.216,0.01703173900028932
6.22,0.01703027252717088
6.224,0.017033998811324294
6.228,0.01703753277113431
6.232,0.01704188410940378
6.236,0.017051356083316337
6.24,0.017053207205121584
6.244,0.017047004745046865
6.248,0.017039744501083434
6.252,0.017024021986010312
6.256,0.017003178835294105
6.26,0.01698574944167329
6.264,0.016958992317397472
6.268,0.016944159302412585
6.272,0.016929350327970622
6.276,0.01691550297524567
6.28,0.016908531217797347
6.284,0.0169023047171797
6.288,0.016889346864542985
6.292,0.01689374628389831
6.296,0.016896871554478592
6.3,0.016899083284427716
6.304,0.01690617524459067
6.308,0.016900597838632007
6.312,0.01689841014922581
6.316,0.01690119885220514
6.32,0.016904203920070797
6.324,0.01690973324494361
6.328,0.01691196901543566
6.332,0.01689841014922581
6.336,0.01688886605368448
6.34,0.016878288214797366
6.344,0.016871893430379245
6.348,0.01687424940358592
6.352,0.016876052444305314
6.356,0.01687739871470913
6.36,0.016891222026891157
6.364,0.016910959312632798
6.368,0.016938389572110524
6.372,0.01698118173851749
6.376,0.017020584188371997
6.38,0.017070732760914097
6.384,0.017118765765678775
6.388,0.017155355472011025
6.392,0.017182857853117527
6.396,0.0172054800040102
6.4,0.01720999962608015
6.404,0.017216105923983167
6.408,0.017222909397631016
6.412,0.017222356465143734
6.416,0.017213557626433087
6.42,0.017189637286222453
6.424,0.01716213490511595
6.428,0.017144801673666835
6.432,0.017129103199136637
6.436,0.01711518372478291
6.44,0.017106697413130294
6.444,0.01708676780304525
6.448,0.01707361762606513
6.452,0.01706174159786005
6.456,0.017046451812559583
6.46,0.017036595189960226
6.464,0.01703844631176547
6.468,0.01702858968916611
6.472,0.017039912784883912
6.476,0.01706758344979089
6.48,0.01709818706093475
6.484,0.017131435131800387
6.488,0.017150427160711346
6.492,0.017170645257311493
6.496,0.017199037138506228
6.5,0.017235146033979975
6.5040000000000004,0.017282049133227166
6.508,0.01733217366522634
6.5120000000000005,0.01735652673520963
6.516,0.017373355115257314
6.5200000000000005,0.017378908480673052
6.524,0.017373643601772418
6.5280000000000005,0.017355541072949694
6.532,0.017317412771870228
6.5360000000000005,0.01725964334722082
6.54,0.017199277543935482
6.5440000000000005,0.01714117155168512
6.548,0.01709352319560725
6.5520000000000005,0.01706361676020822
6.556,0.01703101778400156
6.5600000000000005,0.01701200171454768
6.564,0.017008155227679636
6.5680000000000005,0.017012314241605708
6.572,0.01702741170256277
6.5760000000000005,0.017051476286030962
6.58,0.01707270408543397
6.5840000000000005,0.017106985899645395
6.588,0.017143239038376692
6.5920000000000005,0.017179564298736766
6.596,0.017214951977922752
6.6000000000000005,0.017231035101139755
6.604,0.017232357331000647
6.6080000000000005,0.017225794262782045
6.612,0.01720689839604279
6.6160000000000005,0.0171826414882312
6.62,0.017158480742591308
6.6240000000000006,0.017123453671549202
6.628,0.017104293358837768
6.632000000000001,0.017092874100948268
6.636,0.01708869104647927
6.640000000000001,0.017095085830897392
6.644,0.017101745061287688
6.648000000000001,0.017104101034494366
6.652,0.017114847157181957
6.656000000000001,0.01712655490158656
6.66,0.017137757794589734
6.664,0.017161341567199416
6.668,0.017176511149785256
6.672,0.01719521469218111
6.676,0.017219856248679506
6.68,0.017236083615154062
6.684,0.017246877818927506
6.688,0.017257167171299517
6.692,0.017252142697828137
6.696,0.017251445522083304
6.7,0.01724329577803164
6.704,0.01722932822259206
6.708,0.017216827140270924
6.712,0.017199974719680315
6.716,0.017183675231576986
6.72,0.01718345886669066
6.724,0.017190021934909254
6.728,0.01720136907116998
6.732,0.01722216414080033
6.736,0.017232477533715273
6.74,0.017245507507980765
6.744,0.017252960076287596
6.748,0.017251253197739902
6.752,0.017241132129168366
6.756,0.017220817870396518
6.76,0.01717831419050465
6.764,0.017138406889248715
6.768,0.01710787539973363
6.772,0.017097105236503114
6.776,0.01711417402198005
6.78,0.017136651929615172
6.784,0.0171689383787638
6.788,0.017201633517142156
6.792,0.017229496506392536
6.796,0.01725009925167949
6.8,0.017268947037332897
6.804,0.017268394104845614
6.808,0.017266350658696968
6.812,0.017255917063067405
6.816,0.017234689263664397
6.82,0.017209398612507018
6.824,0.017182160677372695
6.828,0.017146220065699425
6.832,0.017124343171637437
6.836,0.017111241075743168
6.84,0.017102899007348103
6.844,0.01710462992643872
6.848,0.017093691479407726
6.852,0.017081118275457812
6.856,0.01707061255819947
6.86,0.017058520165108067
6.864,0.01705241386720505
6.868,0.017050971434629532
6.872,0.01704224471754766
6.876,0.017047894245135097
6.88,0.017059553908453852
6.884,0.01707731986967562
6.888,0.017104870331867972
6.892,0.017126218333985605
6.896,0.017147710579360792
6.9,0.017175212960467295
6.904,0.01720086421976855
6.908,0.0172259385060396
6.912,0.017254186143976787
6.916,0.017267793091272483
6.92,0.01728390025503241
6.924,0.017300872878337648
6.928,0.01731181132536864
6.932,0.01731587417712301
6.936,0.017316427109610292
6.94,0.017305128054435417
6.944,0.017297122553641305
6.948,0.017284020457747035
6.952,0.01726969229416358
6.956,0.017262768617801103
6.96,0.017248344292045945
6.964,0.017228703168476005
6.968,0.017209013963820213
6.972,0.01718557443446808
6.976,0.01716268783760323
6.98,0.01714843179564855
6.984,0.01713162745614379
6.988,0.017130593712798004
6.992,0.017134079591522168
6.996,0.017137301024274153
7.0,0.017147494214474465
7.0040000000000004,0.017154514053008642
7.008,0.017160476107654105
7.0120000000000005,0.017169058581478425
7.016,0.01717542932535362
7.0200000000000005,0.01718151158271371
7.024,0.01719562338141084
7.0280000000000005,0.017197955314074594
7.032,0.017198868854705753
7.0360000000000005,0.01720451838229319
7.04,0.017205696368896527
7.0440000000000005,0.017202234530715288
7.048,0.01720009492239494
7.0520000000000005,0.01718523786686713
7.056,0.01718076632588303
7.0600000000000005,0.017180429758282077
7.064,0.017182905934203376
7.0680000000000005,0.01718999789436633
7.072,0.017188892029391768
7.0760000000000005,0.017178722879734383
7.08,0.017168385446276517
7.0840000000000005,0.017157134472187495
7.088,0.01715035503908257
7.0920000000000005,0.017152302323059518
7.096,0.017141700443629476
7.1000000000000005,0.017132324631888622
7.104,0.017123453671549202
7.1080000000000005,0.017117804143961763
7.112,0.017115327968040463
7.1160000000000005,0.017107899440276558
7.12,0.017097297560846516
7.1240000000000006,0.017094845425468137
7.128,0.017093451073978472
7.132000000000001,0.017094052087551603
7.136,0.01710167293965891
7.140000000000001,0.017101264250429182
7.144,0.01709890827722251
7.148000000000001,0.017102658601918848
7.152,0.017113933616550798
7.156000000000001,0.017128165617962553
7.16,0.017146917241444258
7.164000000000001,0.017151004133741553
7.168,0.017159875094080974
7.172,0.017162856121403707
7.176,0.017163577337691464
7.18,0.01716648624338542
7.184,0.017167832513789238
7.188,0.017164803405380655
7.192,0.017177184284987164
7.196,0.017195551259782067
7.2,0.017221587167770124
7.204,0.01725416210343386
7.208,0.017269187442762148
7.212,0.017280222051964843
7.216,0.01728233761974227
7.22,0.017279332551876612
7.224,0.017285294606522075
7.228,0.017300127621506962
7.232,0.01731390285260314
7.236,0.017334024787031586
7.24,0.017345636369264485
7.244,0.017350684883278792
7.248,0.01735546895132092
7.252,0.017349603058847154
7.256,0.0173310918407947
7.26,0.017304983811177867
7.264,0.017261494469026063
7.268,0.01720598485541163
7.272,0.017150859890484
7.276,0.01708412334332347
7.28,0.01703092162182986
7.284,0.016995221415585845
7.288,0.016980147995171706
7.292,0.01699159129360413
7.296,0.017020295701856893
7.3,0.017050586785942727
7.304,0.01709773029061917
7.308,0.017151508985142984
7.312,0.017207691733959325
7.316,0.01726089345545293
7.32,0.01729079989085196
7.324,0.01730709937895529
7.328,0.01731286910925735
7.332,0.017299670851191384
7.336,0.01727308201071604
7.34,0.017237381804472027
7.344,0.01718167986651419
7.348,0.017134295956408495
7.352,0.017090614289913292
7.356,0.01705534681344193
7.36,0.017035561446614438
7.364,0.017016833863675657
7.368,0.01700164024054689
7.372,0.017000245889057224
7.376,0.01700365964615261
7.38,0.01701676174204688
7.384,0.01704515362324162
7.388,0.017071213571772603
7.392,0.017104245277751916
7.396,0.01713720486210245
7.4,0.017166053513612767
7.404,0.017193027002774912
7.408,0.017217620478187458
7.412,0.0172216592893989
7.416,0.01722024089736631
7.42,0.017211490139741516
7.424,0.017200575733253447
7.428,0.017194781962408458
7.432,0.017185045542523727
7.436,0.017176030338926753
7.44,0.017179804704166017
7.444,0.01718913243482102
7.448,0.01720831678807538
7.452,0.017236973115242298
7.456,0.01725740757672877
7.46,0.017286929363440992
7.464,0.017317629136756555
7.468,0.01734972326156178
7.472,0.017378932521215976
7.476,0.017395833022892437
7.48,0.017389029549244588
7.484,0.017375134115433784
7.488,0.017347199004554628
7.492,0.01731597033929471
7.496,0.017288948769046717
7.5,0.01724471417006423
7.5040000000000004,0.01720487899043707
7.508,0.017179972987966495
7.5120000000000005,0.017164298553979225
7.516,0.017159418323765396
7.5200000000000005,0.017169226865278903
7.524,0.01717304931160402
7.5280000000000005,0.017186223529127062
7.532,0.017196368638241526
7.5360000000000005,0.017199469868278885
7.54,0.0171988207736199
7.5440000000000005,0.01718192027194344
7.548,0.017149778066052366
7.5520000000000005,0.017117900306133464
7.556,0.017091599952173228
7.5600000000000005,0.017070251950055595
7.564,0.017062486854690733
7.5680000000000005,0.01705291871860648
7.572,0.01706424181432428
7.5760000000000005,0.01707813724813508
7.58,0.0170846281947249
7.5840000000000005,0.017097537966275767
7.588,0.01711006308913983
7.5920000000000005,0.017111601683887045
7.596,0.017119102333279727
7.6000000000000005,0.017127300158417243
7.604,0.017133478577949036
7.6080000000000005,0.01714364772760642
7.612,0.01714797502533297
7.6160000000000005,0.017153263944776526
7.62,0.017168818176049174
7.6240000000000006,0.017191488408027696
7.628,0.017216658856470446
7.632000000000001,0.017247743278472814
7.636,0.017261278104139736
7.640000000000001,0.017274235956776456
7.644,0.01727603899749585
7.648000000000001,0.017270605834794738
7.652,0.01726750460475738
7.656000000000001,0.017258753847132585
7.66,0.01723858383161829
7.664000000000001,0.01722283727600224
7.668,0.017202114328000662
7.672000000000001,0.01717415517657858
7.676,0.017151677268943462
7.68,0.01712234780657464
7.684,0.017092513492804388
7.688,0.01707133377448723
7.692,0.017056717124388672
7.696,0.017050105975084225
7.7,0.017051019515715384
7.704,0.017047389393733667
7.708,0.017052630232091377
7.712,0.017058976935423645
7.716,0.017069723058111236
7.72,0.017087128411189128
7.724,0.01710047091251265
7.728,0.017111048751399766
7.732,0.01712874259099276
7.736,0.01714213317340213
7.74,0.017154634255723267
7.744,0.017170164446452987
7.748,0.01716968363559448
7.752,0.01717415517657858
7.756,0.017181751988142965
7.76,0.017191464367484772
7.764,0.017205816571611153
7.768,0.01721949564053563
7.772,0.01722435183020653
7.776,0.017233535317603983
7.78,0.017244593967349606
7.784,0.017253464927689026
7.788,0.01726274457725818
7.792,0.017258561522789182
7.796,0.017247791359558666
7.8,0.017233367033803508
7.804,0.01721329318046091
7.808,0.01719059890793946
7.812,0.017168145040847266
7.816,0.017137301024274153
7.82,0.017118621522421225
7.824,0.017102394155946672
7.828,0.017092681776604866
7.832,0.01709234520900391
7.836,0.017090470046655742
7.84,0.017083402127035713
7.844,0.017089123776251925
7.848,0.017097105236503114
7.852,0.01710722630507465
7.856,0.017125016306839342
7.86,0.017130761996598482
7.864,0.017142181254487982
7.868,0.017163601378234392
7.872,0.01717167900065728
7.876,0.017170741419483194
7.88,0.017169395149079378
7.884,0.017156076688298782
7.888,0.01715547567472565
7.892,0.017159875094080974
7.896,0.017163769662034867
7.9,0.017171174149255848
7.904,0.017169827878852035
7.908,0.01716401006746412
7.912,0.017164995729724058
7.916,0.01716588522981229
7.92,0.017170428892425166
7.924,0.017182809772031675
7.928,0.017186415853470464
7.932,0.017200840179225622
7.936,0.01721218731548635
7.94,0.01721562511312466
7.944,0.01721536066715248
7.948,0.017210215990966476
7.952,0.01719694561127173
7.956,0.017197017732900506
7.96,0.017203917368720057
7.964,0.017213822072405266
7.968,0.017233367033803508
7.972,0.01725740757672877
7.976,0.017294285769576125
7.98,0.017341116747194536
7.984,0.01738693802201009
7.988,0.01742403257974377
7.992,0.017440067621874923
7.996,0.017411218970364604
8.0,0.017366191033465588
8.004,0.017308974541303458
8.008000000000001,0.017246156602639746
8.012,0.017188242934732787
8.016,0.017135473943011834
8.02,0.017088162154534913
8.024000000000001,0.017061982003289303
8.028,0.01705128396168756
8.032,0.017055178529641453
8.036,0.017075516828956225
8.040000000000001,0.017087392857161307
8.044,0.017100711317941903
8.048,0.017110952589228064
8.052,0.017114606751752703
8.056000000000001,0.01710847641330676
8.06,0.01709244137117561
8.064,0.017063544638579446
8.068,0.017039912784883912
8.072000000000001,0.017017338715077088
8.076,0.01699889961865341
8.08,0.016988994914968202
8.084,0.01697596494070271
8.088000000000001,0.016964473561184433
8.092,0.016960651114859317
8.096,0.01696067515540224
8.1,0.016964353358469807
8.104000000000001,0.0169752918055008
8.108,0.016975532210930053
8.112,0.01698543691461526
8.116,0.01700625602478854
8.120000000000001,0.01703380648698089
8.124,0.017072992571949074
8.128,0.017116938684416456
8.132,0.017154610215180343
8.136000000000001,0.01720497515260877
8.14,0.01725680656315564
8.144,0.017304358757061808
8.148,0.01735176670771043
8.152000000000001,0.017377225642668283
8.156,0.017387298630153966
8.16,0.017389414197931392
8.164,0.017384101237944906
8.168000000000001,0.01737309066928514
8.172,0.01735804128941392
8.176,0.017329697489305036
8.18,0.017307820595243047
8.184000000000001,0.0172875063364712
8.188,0.017267528645300307
8.192,0.017254065941262157
8.196,0.017240627277766936
8.2,0.01722699628992831
8.204,0.017226202952011778
8.208,0.01723120338494023
8.212,0.017232717939144524
8.216,0.017234737344750246
8.22,0.017223029600345642
8.224,0.017206417585184285
8.228,0.017181439461084937
8.232,0.017149826147138215
8.236,0.0171189821305651
8.24,0.017092657736061938
8.244,0.017060948259943517
8.248,0.017041571582345753
8.252,0.017029743635226524
8.256,0.017024166229267862
8.26,0.017027700189077875
8.264,0.017029383027082644
8.268,0.017034960433041306
8.272,0.017051524367116815
8.276,0.017069290328338583
8.28,0.017085469613727287
8.284,0.01710011030436877
8.288,0.017101648899115987
8.292,0.017112779670490384
8.296,0.017126578942129485
8.3,0.01713544990246891
8.304,0.0171440083357503
8.308,0.017146941281987182
8.312,0.01713727698373123
8.316,0.01712568944204125
8.32,0.017108211967334586
8.324,0.017089099735709
8.328,0.017072583882719344
8.332,0.01704794232622095
8.336,0.017032580419291704
8.34,0.017032748703092182
8.344,0.01704087440660092
8.348,0.017057654705562756
8.352,0.017086863965216952
8.356,0.0171075628726756
8.36,0.017134800807809925
8.364,0.017160019337338527
8.368,0.017179468136565065
8.372,0.01719721005724391
8.376,0.017203893328177133
8.38,0.017203364436232778
8.384,0.017208605274590484
8.388,0.017209566896307493
8.392,0.017209038004363138
8.396,0.017213461464261386
8.4,0.017200623814339296
8.404,0.017190045975452182
8.408,0.017181751988142965
8.412,0.01717523700101022
8.416,0.01717110202762707
8.42,0.0171622791483735
8.424,0.017140330132682735
8.428,0.01712412680675111
8.432,0.017105471345441103
8.436,0.017087873668019813
8.44,0.017082344343147
8.444,0.017073088734120775
8.448,0.017064963030612036
8.452,0.01706255897631951
8.456,0.017057919151534935
8.46,0.01705164456983144
8.464,0.017049889610197894
8.468,0.017038662676651797
8.472,0.017038181865793294
8.476,0.01704231683917644
8.48,0.017044552609668487
8.484,0.017052389826662122
8.488,0.01705900097596657
8.492,0.017057197935247174
8.496,0.017060828057228892
8.5,0.01706332827369312
8.504,0.01706022704365576
8.508000000000001,0.0170571258136184
8.512,0.0170321957706049
8.516,0.017001568118918113
8.52,0.016973897454011136
8.524000000000001,0.016948414478510358
8.528,0.016921777556949166
8.532,0.01690139117654854
8.536,0.01687607648484824
8.540000000000001,0.01686460914587289
8.544,0.016862108929408662
8.548,0.016865546727046973
8.552,0.016881124998862546
8.556000000000001,0.016894731946158245
8.56,0.01690896394757
8.564,0.016927811733223407
8.568,0.016944327586213063
8.572000000000001,0.016959785655314006
8.576,0.016978994049111292
8.58,0.016981374062860894
8.584,0.016982936698151034
8.588000000000001,0.01698341750900954
8.592,0.01698012395462878
8.596,0.01697570049473053
8.6,0.016972022291662964
8.604000000000001,0.016955482398130384
8.608,0.01694403909969796
8.612,0.016929951341543754
8.616,0.016918724407997656
8.620000000000001,0.01691576742121785
8.624,0.01690581463644679
8.628,0.016901174811662215
8.632,0.016903819271383996
8.636000000000001,0.016910622745031842
8.64,0.016922859381380804
8.644,0.016942837072551696
8.648,0.01695317450600956
8.652000000000001,0.016973608967496032
8.656,0.016992192307177263
8.66,0.01700601561935929
8.664,0.017015968404130347
8.668000000000001,0.017018781147652602
8.672,0.017010943930658967
8.676,0.01701188151183305
8.68,0.017018973471996005
8.684000000000001,0.017026858770075492
8.688,0.017039552176740032
8.692,0.017034960433041306
8.696,0.017023036323750376
8.700000000000001,0.017008515835823516
8.704,0.01699728890227742
8.708,0.016994716564184414
8.712,0.017006784916732895
8.716,0.017017651242135116
8.72,0.017041451379631128
8.724,0.017068424868793272
8.728,0.017100807480113604
8.732,0.01714208509231628
8.736,0.017178626717562682
8.74,0.017201561395513383
8.744,0.01721206711277172
8.748,0.017196416719327375
8.752,0.017163168648461735
8.756,0.017119486981966532
8.76,0.01705508236746975
8.764,0.016994981010156594
8.768,0.01694298131580925
8.772,0.016903915433555697
8.776,0.016882807836867315
8.78,0.01687607648484824
8.784,0.01687855266076954
8.788,0.016897111959907847
8.792,0.016922474732694
8.796,0.016945313248473
8.8,0.016966396804618453
8.804,0.01696620448027505
8.808,0.01695134742474724
8.812,0.016929566692856952
8.816,0.016897977419453154
8.82,0.016860257807603418
8.824,0.016831264912835545
8.828,0.016798185125770384
8.832,0.016780395124005688
8.836,0.016771163555522387
8.84,0.01677150012312334
8.844,0.0167862129353936
8.848,0.016796598449937316
8.852,0.01679926695020202
8.856,0.016812200762295813
8.86,0.01682239395249612
8.864,0.01683037541274731
8.868,0.016847323995509627
8.872,0.016861243469863355
8.876,0.01687150878169244
8.88,0.016883985823470653
8.884,0.01691422882647063
8.888,0.016945217086301298
8.892,0.01697017116985772
8.896,0.016978825765310814
8.9,0.016988081374337043
8.904,0.016996134956217004
8.908,0.017001327713488862
8.912,0.017006376227503166
8.916,0.017003347119094583
8.92,0.016999933361999196
8.924,0.017005029957099353
8.928,0.017011304538802847
8.932,0.017018252255708247
8.936,0.017034864270869605
8.94,0.017039792582169287
8.944,0.01705073102920028
8.948,0.017063953327809175
8.952,0.017075420666784524
8.956,0.017086431235444295
8.96,0.017093018344205818
8.964,0.017083666573007892
8.968,0.017076334207415684
8.972,0.017066886274046057
8.976,0.01704777404242047
8.98,0.017026834729532567
8.984,0.01699332221269475
8.988,0.01696139637169
8.992,0.016939711801971413
8.996,0.016927210719650275
9.0,0.016925888489789386
9.004,0.016936899058449157
9.008000000000001,0.016944688194356943
9.012,0.016967406507421314
9.016,0.016989740171798884
9.02,0.01700839563310889
9.024000000000001,0.01702818099993638
9.028,0.01703839823067962
9.032,0.017031354351602516
9.036,0.017027964635050054
9.040000000000001,0.017023132485922077
9.044,0.01701712235019076
9.048,0.017017555079963415
9.052,0.017013203741693943
9.056000000000001,0.017015199106756737
9.06,0.017022002580404587
9.064,0.017029575351426046
9.068,0.017039504095654183
9.072000000000001,0.017047485555905368
9.076,0.017039552176740032
9.08,0.017032315973319525
9.084,0.01702818099993638
9.088000000000001,0.01702584906727263
9.092,0.017031594757031768
9.096,0.017033349716665314
9.1,0.017032219811147824
9.104000000000001,0.01703976854162636
9.108,0.01705068294811443
9.112,0.01706164543568835
9.116,0.017075973599271807
9.120000000000001,0.017076238045243983
9.124,0.01707945947799597
9.128,0.017085229208298032
9.132,0.017090638330456216
9.136000000000001,0.017102634561375923
9.14,0.017114919278810734
9.144,0.017118621522421225
9.148,0.017128045415247928
9.152000000000001,0.01713828668653409
9.156,0.01714761441718909
9.16,0.017155716080154905
9.164,0.01714542672778289
9.168000000000001,0.017130040780310725
9.172,0.017117179089845707
9.176,0.017103548102007083
9.18,0.017087537100418857
9.184000000000001,0.01707727178858977
9.188,0.017053904380866413
9.192,0.017036090338558796
9.196,0.01702421431035371
9.200000000000001,0.01701757912050634
9.204,0.0170253442158712
9.208,0.01703625862235927
9.212,0.017038782879366426
9.216000000000001,0.017050346380513476
9.22,0.017065203436041287
9.224,0.017080709586228083
9.228,0.01710325961549198
9.232,0.017111769967687523
9.236,0.017116265549214547
9.24,0.017121506387572254
9.244,0.017123597914806752
9.248,0.017125761563670027
9.252,0.017128670469363984
9.256,0.017120592846941094
9.26,0.017117299292560333
9.264,0.01710864469710724
9.268,0.01709890827722251
9.272,0.01709910060156591
9.276,0.017103475980378306
9.28,0.01710864469710724
9.284,0.017118621522421225
9.288,0.017132540996774952
9.292,0.017152662931203395
9.296,0.017177737217474447
9.3,0.017186415853470464
9.304,0.017198388043847247
9.308,0.017208941842191437
9.312,0.017216105923983167
9.316,0.017221178478540395
9.32,0.01721603380235439
9.324,0.017195695503039617
9.328,0.01717802570398955
9.332,0.017154514053008642
9.336,0.017133069888719307
9.34,0.017119823549567488
9.344,0.01709417229026623
9.348,0.017072006909689137
9.352,0.017062342611433183
9.356,0.017058303800221736
9.36,0.01706114058428692
9.364,0.017073088734120775
9.368,0.017083906978437143
9.372,0.017110760264884662
9.376,0.01713391130772169
9.38,0.0171554275936398
9.384,0.017172255973687486
9.388,0.01717482831178049
9.392,0.017167303621844883
9.396,0.01715994721570975
9.4,0.017143094795119142
9.404,0.0171233575093775
9.408,0.017109726521538877
9.412,0.017085277289383884
9.416,0.017073016612491998
9.42,0.01707566107221378
9.424,0.01706772769304844
9.428,0.01706195796274638
9.432,0.017056380556787716
9.436,0.01704794232622095
9.44,0.017050057893998372
9.444,0.017062486854690733
9.448,0.01707438692343874
9.452,0.017090446006112814
9.456,0.01709458097949596
9.46,0.017088402559964168
9.464,0.017085277289383884
9.468,0.017084604154181976
9.472,0.017090974898057172
9.476,0.017107803278104856
9.48,0.017111962292030925
9.484,0.017118116671019794
9.488,0.017117515657446663
9.492,0.017116385751929173
9.496,0.01711874172513585
9.5,0.017125064387925194
9.504,0.017141051348970492
9.508000000000001,0.01717237617640211
9.512,0.01720862931513341
9.516,0.017247430751414786
9.52,0.017291497066596793
9.524000000000001,0.01732532211049264
9.528,0.01735998857339087
9.532,0.01738424548120246
9.536,0.01739068834670643
9.540000000000001,0.01737611977769372
9.544,0.017341429274252564
9.548,0.017277024659755787
9.552,0.0172124277209156
9.556000000000001,0.017148287552391
9.56,0.017087368816618383
9.564,0.017041691785060382
9.568,0.017011472822603322
9.572000000000001,0.01699199998283386
9.576,0.01699139896926073
9.58,0.01699921214571144
9.584,0.017013684552552446
9.588000000000001,0.017042677447320315
9.592,0.017066958395674833
9.596,0.017093595317236025
9.6,0.01711316431917719
9.604000000000001,0.017122131441688313
9.608,0.017120112036082588
9.612,0.01709837938527815
9.616,0.01705936158411045
9.620000000000001,0.01702219490474799
9.624,0.016982167400777428
9.628,0.01694747689733627
9.632,0.016926994354763948
9.636000000000001,0.016907617677166184
9.64,0.016894227094756815
9.644,0.01689232789186572
9.648,0.01689410689204219
9.652000000000001,0.016904877055272705
9.656,0.016924181611241693
9.66,0.016930912963260766
9.664,0.016946154667475382
9.668000000000001,0.016970147129314796
9.672,0.017002698024435603
9.676,0.01704099460931555
9.68,0.01707991624831155
9.684000000000001,0.0171095582377384
9.688,0.01714634026841405
9.692,0.01717422729820736
9.696,0.0171941569082924
9.700000000000001,0.017214182680549146
9.704,0.017213725910233565
9.708,0.017206706071699388
9.712,0.01719790723298874
9.716000000000001,0.017187209191387
9.72,0.017180021069052347
9.724,0.01717345800083375
9.728,0.01716213490511595
9.732,0.017161846418600846
9.736,0.01715482658006667
9.74,0.017148143309133446
9.744,0.01714797502533297
9.748,0.017142662065346488
9.752,0.017132829483290053
9.756,0.01712888683425031
9.76,0.0171232613472058
9.764,0.017118621522421225
9.768,0.017118597481878297
9.772,0.017104918412953824
9.776,0.017096384020215356
9.78,0.017092417330632687
9.784,0.017088618924850495
9.788,0.017090758533170842
9.792,0.017094845425468137
9.796,0.017093282790177997
9.8,0.01710092768282823
9.804,0.017110447737826634
9.808,0.01712181891463028
9.812,0.017139681038023755
9.816,0.0171460998629848
9.82,0.017149681903880665
9.824,0.017155163147667622
9.828,0.017152831215003873
9.832,0.017146436430585752
9.836,0.01714340732217717
9.84,0.017127588644932346
9.844,0.01711568857618434
9.848,0.01710198546671694
9.852,0.017084844559611227
9.856,0.017068569112050826
9.86,0.017042292798633514
9.864,0.01700803502496501
9.868,0.016980292238429257
9.872,0.016951635911262343
9.876,0.016926705868248845
9.88,0.016916464596962683
9.884,0.01690819465019639
9.888,0.016915454894159822
9.892,0.016938533815368074
9.896,0.016966036196474577
9.9,0.016995774348073128
9.904,0.01702652220247454
9.908,0.017040057028141462
9.912,0.017056332475701867
9.916,0.017073088734120775
9.92,0.01708402718115177
9.924,0.017095157952526165
9.928,0.017094148249723305
9.932,0.01708676780304525
9.936,0.017083834856808366
9.94,0.017077295829132696
9.944,0.01706727092273286
9.948,0.01706118866537277
9.952,0.017044913217812367
9.956,0.017036450946702673
9.96,0.017033686284266266
9.964,0.017033037189607286
9.968,0.017039504095654183
9.972,0.01704565847464305
9.976,0.017049504961511093
9.98,0.01706306382772094
9.984,0.01707621400470106
9.988,0.017092056722488806
9.992,0.017113957657093722
9.996,0.017127444401674796
10.0,0.01713619515929959
10.004,0.017134199794236794
10.008000000000001,0.017108308129506287
10.012,0.017068737395851304
10.016,0.01703652306833145
10.02,0.017001808524347368
10.024000000000001,0.016995461821015096
10.028,0.016987504401306835
10.032,0.016961973344720205
10.036,0.016942284140064417
10.040000000000001,0.016926946273678096
10.044,0.016917161772707516
10.048,0.016934326720356153
10.052,0.016972214616006367
10.056000000000001,0.01702036782348567
10.06,0.017072271355661316
10.064,0.017101216169343333
10.068,0.01712047264422647
10.072000000000001,0.01713167553722964
10.076,0.017129103199136637
10.08,0.01711905425219388
10.084,0.01710285092626225
10.088000000000001,0.0170708289230858
10.092,0.017042845731120793
10.096,0.017008660079081066
10.1,0.01698190295480525
10.104000000000001,0.016977695859793328
10.108,0.016984619536155803
10.112,0.01699647152381796
10.116,0.017014189403953876
10.120000000000001,0.01703551336552859
10.124,0.017051500326573887
10.128,0.017067198801104085
10.132,0.01706808830119232
10.136000000000001,0.017075228342441122
10.14,0.017084411829838574
10.144,0.017090638330456216
10.148,0.0171003266692551
10.152000000000001,0.01710910146742282
10.156,0.017104076993951438
10.16,0.017104413561552394
10.164,0.01710258648029007
10.168000000000001,0.0170960474526144
10.172,0.01708955650602458
10.176,0.01706693435513191
10.18,0.01703678751430363
10.184000000000001,0.01700885240342447
10.188,0.016984499333441178
10.192,0.016968728737282206
10.196,0.016966444885704306
10.200000000000001,0.016955073708900655
10.204,0.01695504966835773
10.208,0.016963079209694767
10.212,0.016972791589036574
10.216000000000001,0.016983465590095392
10.22,0.016986278333617648
10.224,0.016990894117859298
10.228,0.017001423875660563
10.232000000000001,0.01700844371419474
10.236,0.017010919890116043
10.24,0.01701351626875197
10.244,0.016998058199651025
10.248,0.016977070805677272
10.252,0.016960699195945166
10.256,0.016949279938055666
10.26,0.01694906357316934
10.264,0.016962838804265516
10.268,0.016980941333088237
10.272,0.017014598093183605
10.276,0.017046644136902985
10.28,0.017079699883425222
10.284,0.017121265982143002
10.288,0.017154105363778913
10.292,0.017184636853293998
10.296,0.01721932735673515
10.3,0.017252214819456914
10.304,0.017284332984805063
10.308,0.01731875904227404
10.312,0.017336909652182615
10.316,0.017354050559288327
10.32,0.017365397695549054
10.324,0.01736227242496877
10.328,0.017340155125477527
10.332,0.017293732837088842
10.336,0.017230121560508595
10.34,0.01716533229732501
10.344,0.017099869898939517
10.348,0.017043086136550045
10.352,0.01700611178153099
10.356,0.016980797089830687
10.36,0.016977503535449925
10.364,0.01699625515893163
10.368,0.017027748270163727
10.372,0.017070708720371173
10.376,0.01712184295517321
10.38,0.017156629620786065
10.384,0.01718684858324312
10.388,0.017205600206724826
10.392,0.017212259437115122
10.396,0.0172080523421032
10.4,0.017187233231929926
10.404,0.017151773431115163
10.408,0.0171189821305651
10.412,0.017083426167578637
10.416,0.017054361151181995
10.42,0.017043374623065148
10.424,0.01702589714835848
10.428,0.0170208726748871
10.432,0.017025584621300452
10.436,0.0170343834600111
10.44,0.017045898880072304
10.444,0.017056717124388672
10.448,0.017062270489804406
10.452,0.017076935220988815
10.456,0.017090854695342543
10.46,0.017105831953584984
10.464,0.01712787713144745
10.468,0.01714559501158337
10.472,0.017161846418600846
10.476,0.017179924906880646
10.48,0.017191560529656473
10.484,0.017198868854705753
10.488,0.017203893328177133
10.492,0.01718725727247285
10.496,0.017171053946541222
10.5,0.017155716080154905
10.504,0.017136772132329798
10.508000000000001,0.017119775468481636
10.512,0.017100086263825847
10.516,0.017075973599271807
10.52,0.017068521030964973
10.524000000000001,0.01707164630154526
10.528,0.017084147383866394
10.532,0.01711157764334412
10.536,0.017129680172166845
10.540000000000001,0.01715189363382979
10.544,0.01717437154146491
10.548,0.017191728813456948
10.552,0.017207018598757416
10.556000000000001,0.017223053640888566
10.56,0.01722151504614135
10.564,0.017207379206901297
10.568,0.017171438595228027
10.572000000000001,0.017138815578478444
10.576,0.017123117103948246
10.58,0.017103740426350485
10.584,0.01708708033010328
10.588000000000001,0.017080901910571485
10.592,0.017079435437453043
10.596,0.017079315234738417
10.6,0.01708604658675749
10.604000000000001,0.017080228775369577
10.608,0.01707438692343874
10.612,0.01705986643551188
10.616,0.017037604892763087
10.620000000000001,0.017015439512185992
10.624,0.01699048542862957
10.628,0.01695976161477108
10.632,0.016943462126667752
10.636000000000001,0.016938389572110524
10.64,0.01694120231563278
10.644,0.016950722370631183
10.648,0.016954424614241674
10.652000000000001,0.01695983373639986
10.656,0.016968440250767103
10.66,0.016972334818720996
10.664,0.016972527143064395
10.668000000000001,0.016978008386851356
10.672,0.016970267332029422
10.676,0.016971228953746434
10.68,0.01697997971137123
10.684000000000001,0.016994259793868833
10.688,0.01701743487724879
10.692,0.017037556811677235
10.696,0.017054289029553218
10.700000000000001,0.017080252815912505
10.704,0.017101600818030138
10.708,0.01711778010341884
10.712,0.01713847901087749
10.716000000000001,0.017144705511495134
10.72,0.017149465538994334
10.724,0.01715838458041961
10.728,0.01716547654058256
10.732000000000001,0.017172977189975243
10.736,0.01717867479864853
10.74,0.017167303621844883
10.744,0.017157350837073822
10.748000000000001,0.017141051348970492
10.752,0.017122011238973684
10.756,0.01711083238651344
10.76,0.017094605020038886
10.764,0.0170775843156478
10.768,0.017070852963628726
10.772,0.01706904992290933
10.776,0.0170733050990071
10.78,0.01708809003290614
10.784,0.01709645614184413
10.788,0.017110351575654933
10.792,0.01712198719843076
10.796,0.017128982996422012
10.8,0.017135113334867953
10.804,0.01713593071332741
10.808,0.017131002402027733
10.812,0.017131146645285287
10.816,0.017127035712445067
10.82,0.01711773202233299
10.824,0.017113573008406918
10.828,0.01710143253422966
10.832,0.017089171857337777
10.836,0.017081911613374346
10.84,0.017077944923791676
10.844,0.017073785909865608
10.848,0.017072872369234448
10.852,0.01706296766554924
10.856,0.01706279938174876
10.86,0.017065780409071495
10.864,0.017067463247076264
10.868,0.017072343477290093
10.872,0.01707155013937356
10.876,0.017060563611256713
10.88,0.017056957529817923
10.884,0.01705936158411045
10.888,0.01706885759856593
10.892,0.01708655143815892
10.896,0.01709580704718515
10.9,0.01710640892661519
10.904,0.017122035279516612
10.908,0.01713066583442678
10.912,0.017136531726900543
10.916,0.017141051348970492
10.92,0.01713047351008338
10.924,0.017122708414718517
10.928,0.017115736657270193
10.932,0.01710989480533935
10.936,0.01711275562994746
10.94,0.0171073705483322
10.944,0.017102730723547625
10.948,0.01710083152065653
10.952,0.017096287858043655
10.956,0.01709453289841011
10.96,0.017094845425468137
10.964,0.017077103504789293
10.968,0.017063857165637474
10.972,0.017053279326750357
10.976,0.017045177663784543
10.98,0.01704012914977024
10.984,0.017041355217459427
10.988,0.017040249352484865
10.992,0.01705373609706594
10.996,0.017071478017744782
11.0,0.017095614722841747
11.004,0.017129463807280518
11.008000000000001,0.017150186755282095
11.012,0.01716177429697207
11.016,0.017175501446982395
11.02,0.01718201643411514
11.024000000000001,0.01719141628639892
11.028,0.017208605274590484
11.032,0.017215048140094454
11.036,0.0172260346682113
11.040000000000001,0.017238247264017334
11.044,0.017253272603345624
11.048,0.01727243291605706
11.052,0.01728221741702764
11.056000000000001,0.017291376863882168
11.06,0.017297266796898858
11.064,0.01728635239041079
11.068,0.017261903158255796
11.072000000000001,0.017225481735724017
11.076,0.017170236568081764
11.08,0.017116265549214547
11.084,0.017071453977201858
11.088000000000001,0.017037989541449892
11.092,0.017018156093536546
11.096,0.01701743487724879
11.1,0.017014766376984083
11.104000000000001,0.017027700189077875
11.108,0.017045369988127945
11.112,0.017062847462834613
11.116,0.0170867197219594
11.120000000000001,0.017101552736944286
11.124,0.017106096399557163
11.128,0.01710590407521376
11.132,0.017097249479760664
11.136000000000001,0.017083137681063534
11.14,0.017071309733944304
11.144,0.01704500937998407
11.148,0.017027363621476922
11.152000000000001,0.017009261092654198
11.156,0.01699510121287122
11.16,0.0169865187390469
11.164,0.016971565521347386
11.168000000000001,0.016952525411350578
11.172,0.01694144272106203
11.176,0.016930167706430084
11.18,0.01692353251658271
11.184000000000001,0.01692785981430926
11.188,0.01692622505739034
11.192,0.01693084084163199
11.196,0.01694942418131322
11.200000000000001,0.016976686156990467
11.204,0.01701031887654291
11.208,0.017047293231561966
11.212,0.017065107273869586
11.216000000000001,0.017086238911100893
11.22,0.017108163886248733
11.224,0.017123934482407708
11.228,0.01713593071332741
11.232000000000001,0.017139584875852053
11.236,0.01713203614537352
11.24,0.017129271482937115
11.244,0.017129271482937115
11.248000000000001,0.01712975229379562
11.252,0.017133791105007064
11.256,0.017125905806927577
11.26,0.017123213266119947
11.264,0.017123477712092126
11.268,0.01712482398249594
11.272,0.017131194726371136
11.276,0.017139512754223277
11.28,0.017136531726900543
11.284,0.01713879153793552
11.288,0.01714213317340213
11.292,0.017143623687063497
11.296,0.017148455836191474
11.3,0.017145378646697042
11.304,0.01714121963277097
11.308,0.017141411957114373
11.312,0.01713792607839021
11.316,0.01713523353758258
11.32,0.017137180821559527
11.324,0.017123237306662875
11.328,0.017112803711033308
11.332,0.017103019210062728
11.336,0.01709210480357466
11.34,0.017080541302427605
11.344,0.01705743834067643
11.348,0.017032123648976123
11.352,0.017014958701327486
11.356,0.016999140024082662
11.36,0.016986662982304453
11.364,0.0169865187390469
11.368,0.016978224751737683
11.372,0.016973296440438004
11.376,0.01697377725129651
11.38,0.016973440683695558
11.384,0.016980292238429257
11.388,0.01698543691461526
11.392,0.01697743141382115
11.396,0.01697829687336646
11.4,0.0169865187390469
11.404,0.01700154407837519
11.408,0.01702483936446977
11.412,0.017041715825603307
11.416,0.017051764772546066
11.42,0.017068737395851304
11.424,0.017082320302604075
11.428,0.0170933789523497
11.432,0.017104990534582597
11.436,0.01710335577766368
11.44,0.017102466277575445
11.444,0.017102057588345716
11.448,0.017096576344558755
11.452,0.01709335491180677
11.456,0.017090974898057172
11.46,0.017082176059346525
11.464,0.017084435870381498
11.468,0.01708813811399199
11.472,0.017095109871440316
11.476,0.01710919762959452
11.48,0.01711417402198005
11.484,0.017119607184681158
11.488,0.01713508929432503
11.492,0.01714559501158337
11.496,0.017150234836367944
11.5,0.017157687404674778
11.504,0.017148503917277326
11.508000000000001,0.017141916808515803
11.512,0.01712874259099276
11.516,0.01710951015665255
11.52,0.017090998938600097
11.524000000000001,0.017065564044185168
11.528,0.017028806054052437
11.532,0.017001471956746412
11.536,0.01697620534613196
11.540000000000001,0.016953967843926093
11.544,0.016945289207930075
11.548,0.01693247559855091
11.552,0.016930215787515933
11.556000000000001,0.016946202748561234
11.56,0.016970964507774255
11.564,0.017004212578639894
11.568,0.017042701487863243
11.572000000000001,0.017073088734120775
11.576,0.017104413561552394
11.58,0.017125232671725672
11.584,0.01713518545649673
11.588000000000001,0.0171390559839077
11.592,0.01712650682050071
11.596,0.017096768668902158
11.6,0.017069122044538105
11.604000000000001,0.017037845298192338
11.608,0.017011064133373593
11.612,0.01699469252364149
11.616,0.01697276754849365
11.620000000000001,0.016967526710135943
11.624,0.0169773833327353
11.628,0.016993851104639104
11.632,0.01701870902602383
11.636000000000001,0.01704996173182667
11.64,0.017072583882719344
11.644,0.017101745061287688
11.648,0.01713016098302535
11.652000000000001,0.01715624497209926
11.656,0.01718095865022643
11.66,0.01718884394830592
11.664,0.01718716111030115
11.668000000000001,0.01718571867772563
11.672,0.017180309555567447
11.676,0.01717187132500068
11.68,0.01716533229732501
11.684000000000001,0.017153191823147753
11.688,0.017151004133741553
11.692,0.017147710579360792
11.696,0.017145210362896564
11.700000000000001,0.017145979660270174
11.704,0.017148311592933924
11.708,0.017145162281810716
11.712,0.017154946782781295
11.716000000000001,0.017170981824912446
11.72,0.017188964151020544
11.724,0.01721401439674867
11.728,0.017219207154020526
11.732000000000001,0.017220072613565833
11.736,0.017225794262782045
11.74,0.017226251033097627
11.744,0.01721754835655868
11.748000000000001,0.01719990259805154
11.752,0.017153985161064287
11.756,0.01710691377801662
11.76,0.017059025016509497
11.764000000000001,0.01701570395815817
11.768,0.016985076306471385
11.772,0.01695569876301671
11.776,0.016935288342073165
11.78,0.016929903260457905
11.784,0.016940312815544544
11.788,0.016964834169328313
11.792,0.017003539443437986
11.796,0.017036547108874374
11.8,0.017079555640167672
11.804,0.01712153042811518
11.808,0.017154514053008642
11.812,0.01718059804208255
11.816,0.017194349232635804
11.82,0.01718100673131228
11.824,0.017159562567022946
11.828,0.017127300158417243
11.832,0.01708616678947212
11.836,0.017055322772899006
11.84,0.017015415471643067
11.844,0.016978008386851356
11.848,0.01695733351993563
11.852,0.0169454094106447
11.856,0.01694120231563278
11.86,0.01694120231563278
11.864,0.016929061841455522
11.868,0.01692180159749209
11.872,0.01691374801561213
11.876,0.01690627140676237
11.88,0.016907401312279857
11.884,0.016909180312456328
11.888,0.016917474299765544
11.892,0.016937259666593034
11.896,0.016956131492789368
11.9,0.016972647345779024
11.904,0.016997457186077893
11.908,0.017008636038538142
11.912,0.017022843999406973
11.916,0.017041836028317933
11.92,0.01706118866537277
11.924,0.017080541302427605
11.928,0.017098547669078628
11.932,0.01710167293965891
11.936,0.017111794008230447
11.94,0.017119823549567488
11.944,0.01712350175263505
11.948,0.017134536361837746
11.952,0.0171390559839077
11.956,0.017136675970158097
11.96,0.01713684425395857
11.964,0.01712847814502058
11.968,0.017120039914453815
11.972,0.01711929465762313
11.976,0.017104341439923617
11.98,0.017095662803927596
11.984,0.017090397925026965
11.988,0.01708280111346258
11.992,0.017078473815736035
11.996,0.017074050355837787
12.0,0.01706164543568835
12.004,0.017062775341205837
12.008000000000001,0.017065876571243196
12.012,0.01707051639602777
12.016,0.01707799300487753
12.02,0.01707164630154526
12.024000000000001,0.017066886274046057
12.028,0.017060924219400593
12.032,0.01705306296186403
12.036,0.017043446744693925
12.040000000000001,0.017039167528053227
12.044,0.017025103810441946
12.048,0.01702370945895228
12.052,0.017030536973143058
12.056000000000001,0.01704301401492127
12.06,0.017057822989363234
12.064,0.017065275557670064
12.068,0.017059169259767047
12.072000000000001,0.017049913650740822
12.076,0.017038879041538123
12.08,0.017025536540214603
12.084,0.01702231510746262
12.088000000000001,0.017011929592918903
12.092,0.01700995826839903
12.096,0.01702022358022812
12.1,0.017036234581816346
12.104000000000001,0.017051211840058787
12.108,0.017068208503906945
12.112,0.01706919416616688
12.116,0.017072079031317914
12.120000000000001,0.01707498793701187
12.124,0.017080397059170055
12.128,0.017088955492451447
12.132,0.0170845320325532
12.136000000000001,0.017073016612491998
12.14,0.017064674544096933
12.144,0.017055587218871182
12.148,0.01704926455608184
12.152000000000001,0.017049024150652587
12.156,0.017041114812030175
12.16,0.017044408366410937
12.164,0.0170504665832281
12.168000000000001,0.01705551509724241
12.172,0.017062270489804406
12.176,0.01706804022010647
12.18,0.017062390692519032
12.184000000000001,0.01705799127316371
12.188,0.01705251002937675
12.192,0.01704601908278693
12.196,0.017044456447496786
12.200000000000001,0.01702630583758821
12.204,0.01700702532216215
12.208,0.016992841401836243
12.212,0.01697702272459142
12.216000000000001,0.016957910492965838
12.22,0.016943438086124828
12.224,0.01691713773216459
12.228,0.016901944109035824
12.232000000000001,0.016891077783633603
12.236,0.01688357713424092
12.24,0.016881461566463498
12.244,0.01687379263327034
12.248000000000001,0.01687124433572026
12.252,0.016878744985112944
12.256,0.016888673729341077
12.26,0.016900958446775888
12.264000000000001,0.01691408458321308
12.268,0.016911175677519125
12.272,0.016906704136535024
12.276,0.016897785095109752
12.280000000000001,0.016877687201224234
12.284,0.01685501696924571
12.288,0.016834702710473857
12.292,0.016801887369380875
12.296,0.016778519961657516
12.3,0.016767268987568494
12.304,0.016764528365675015
12.308,0.016771572244752116
12.312,0.016776789042566898
12.316,0.016788015976112996
12.32,0.016814532694959562
12.324,0.016829918642431732
12.328,0.016843164981583555
12.332,0.01685948851022981
12.336,0.016860065483260016
12.34,0.016866820875822013
12.344,0.016878119930996888
12.348,0.016896150338190835
12.352,0.01692120058391896
12.356,0.016946803762134366
12.36,0.01696404083141178
12.364,0.01698401852258267
12.368,0.016996639807618435
12.372,0.017008828362881544
12.376,0.017027051094418894
12.38,0.017036066298015868
12.384,0.017053904380866413
12.388,0.0170710212474292
12.392,0.017080853829485636
12.396,0.017084267586581024
12.4,0.017081719289030944
12.404,0.01706642950373048
12.408,0.017053904380866413
12.412,0.01703839823067962
12.416,0.017018757107109678
12.42,0.016997649510421296
12.424,0.01696714206144914
12.428,0.016926850111506395
12.432,0.016893626081183683
12.436,0.016862060848322813
12.44,0.016835183521332363
12.444,0.01682508649330375
12.448,0.016812849856954793
12.452,0.016815782803191674
12.456,0.016833452602241745
12.46,0.016860786699547773
12.464,0.016893818405527086
12.468,0.016926008692504012
12.472,0.016939735842514337
12.476,0.016955987249531814
12.48,0.01696444952064151
12.484,0.01696459376389906
12.488,0.01696495437204294
12.492,0.01694956842457077
12.496,0.016933413179724993
12.5,0.01692146502989114
12.504,0.016907737879880813
12.508000000000001,0.016897833176195604
12.512,0.016900261271031055
12.516,0.01689836206813996
12.52,0.01691230558303661
12.524000000000001,0.016934519044699555
12.528,0.0169590163579404
12.532,0.01698798521216534
12.536,0.017009597660255154
12.540000000000001,0.01701575203924402
12.544,0.0170230603642933
12.548,0.017029647473054823
12.552,0.017038494392851322
12.556000000000001,0.017052485988833823
12.56,0.017051091637344157
12.564,0.017047197069390268
12.568,0.017043855433923654
12.572000000000001,0.017036691352131927
12.576,0.017021257323573905
12.58,0.017000558416115252
12.584,0.016966661250590633
12.588000000000001,0.016937980882880795
12.592,0.016913195083124846
12.596,0.016895741648961106
12.6,0.01689302506761055
12.604000000000001,0.016891270107977006
12.608,0.016898746716826764
12.612,0.016914877921129615
12.616,0.016931369733576347
12.620000000000001,0.016946515275619262
12.624,0.01696454568281321
12.628,0.016964377399012732
12.632,0.016962430115035787
12.636000000000001,0.016964425480098584
12.64,0.016961204047346596
12.644,0.016948053870366478
12.648,0.016930071544258383
12.652000000000001,0.016905333825588287
12.656,0.016898241865425333
12.66,0.016905742514818016
12.664,0.016917161772707516
12.668000000000001,0.016928292544081913
12.672,0.01693033599023056
12.676,0.01693257176072261
12.68,0.01693997624794359
12.684000000000001,0.016949231856969817
12.688,0.016958198979480938
12.692,0.01696779115610812
12.696,0.016957622006450734
12.700000000000001,0.01695043388411608
12.704,0.016945890221503206
12.708,0.01694153888323373
12.712,0.016942909194180473
12.716000000000001,0.016944832437614493
12.72,0.01694144272106203
12.724,0.016945842140417354
12.728,0.01694875104611131
12.732000000000001,0.01694495264032912
12.736,0.016938125126138345
12.74,0.016916801164563636
12.744,0.016895645486789405
12.748000000000001,0.01687292717372503
12.752,0.01685588242879102
12.756,0.01684912703622902
12.76,0.016852444631152708
12.764000000000001,0.016851651293236174
12.768,0.01686410429447146
12.772,0.016882375107094658
12.776,0.016899924703430103
12.780000000000001,0.016923772922011963
12.784,0.016940913829117676
12.788,0.016944592032185242
12.792,0.016945289207930075
12.796000000000001,0.016941562923776656
12.8,0.016932427517465057
12.804,0.016923676759840262
12.808,0.01689603013547621
12.812,0.01687114817354856
12.816,0.016843501549184507
12.82,0.016815470276133646
12.824,0.016793449138814108
12.828,0.01677414458284512
12.832,0.016751402229237822
12.836,0.01673938195777519
12.84,0.016727313605226706
12.844,0.016714980806706047
12.848,0.01670562903550812
12.852,0.016679785451863462
12.856,0.016655504503508944
12.86,0.01662958879823551
12.864,0.01660273551178799
12.868,0.016582974185503425
12.872,0.016576483238913604
12.876,0.016560544358954155
12.88,0.016553019669018548
12.884,0.016547802871203766
12.888,0.016543403451848442
12.892,0.01654015797855353
12.896,0.016528762761206958
12.9,0.016505515556198225
12.904,0.016482532797161675
12.908,0.016455078497141024
12.912,0.016423032453421645
12.916,0.016398270694208624
12.92,0.016368412339895447
12.924,0.016346920094520264
12.928,0.01633535659337321
12.932,0.016333096782338238
12.936,0.01633821741798132
12.94,0.016343097648195144
12.944,0.01633730387735016
12.948,0.016343265931995622
12.952,0.016358772082182418
12.956,0.01638093746275951
12.96,0.016411661276617997
12.964,0.01645103968592958
12.968,0.01650534727239775
12.972,0.01656326094030471
12.976,0.016622088148842827
12.98,0.016666418909997014
12.984,0.01668831984460193
12.988,0.01667415996481895
12.992,0.01664903759746205
12.996,0.01661480386433647
13.0,0.016586315820970036
13.004,0.016574055144078153
13.008000000000001,0.016568814305720443
13.012,0.016558573034434282
13.016,0.016561698305014565
13.02,0.016573983022449376
13.024000000000001,0.016587830375174327
13.028,0.016609659188150466
13.032,0.016631944771442187
13.036,0.016668967207547094
13.040000000000001,0.016718947496288716
13.044,0.01677104335280776
13.048,0.01681962929005972
13.052,0.01687547547127511
13.056000000000001,0.01692288342192373
13.06,0.01698122981960334
13.064,0.017045321907042096
13.068,0.017119270617080205
13.072000000000001,0.01720475878772244
13.076,0.01725320048171685
13.08,0.01724425739974865
13.084,0.01722283727600224
13.088000000000001,0.017183218461261404
13.092,0.01713367090229244
13.096,0.01708905165462315
13.1,0.01703688367647533
13.104000000000001,0.01699625515893163
13.108,0.016957261398306854
13.112,0.01691550297524567
13.116,0.01688242318818051
13.120000000000001,0.016864176416100236
13.124,0.016841938913894367
13.128,0.016832899669754462
13.132,0.016830014804603433
13.136000000000001,0.016830928345234593
13.14,0.016834967156446036
13.144,0.016822778601182926
13.148,0.01679780047708358
13.152000000000001,0.016777317934511253
13.156,0.0167518589995534
13.16,0.016710773711694125
13.164,0.016664591828734695
13.168000000000001,0.016604177944363505
13.172,0.01655518331788182
13.176,0.016510299624240353
13.18,0.01648068167535643
13.184000000000001,0.01647895075626581
13.188,0.016510804475641783
13.192,0.016564150440392944
13.196,0.016656201679253777
13.200000000000001,0.016780395124005688
13.204,0.016927547287251227
13.208,0.017095855128270998
13.212,0.017263057104316207
13.216000000000001,0.017441197527392413
13.22,0.017612534476820763
13.224,0.017766586275885853
13.228,0.017899818964777662
13.232000000000001,0.018006991705138486
13.236,0.01807358400904147
13.24,0.018120703473174987
13.244,0.018155490138787842
13.248000000000001,0.018183377168581146
13.252,0.01820585507621627
13.256,0.018216937766504814
13.26,0.01821162480651833
13.264000000000001,0.01821020641448574
13.268,0.01819299338575125
13.272,0.018157461463307715
13.276,0.018111375742519985
13.280000000000001,0.01803826845148426
13.284,0.01795895870037381
13.288,0.017876163070539203
13.292,0.017788246805061515
13.296000000000001,0.017698359215063957
13.3,0.017616284801517106
13.304,0.017537768388323195
13.308,0.01748658607243531
13.312000000000001,0.01745617478563485
13.316,0.01744196682476602
13.32,0.017441437932821664
13.324,0.017438553067670632
13.328,0.017439947419160298
13.332,0.0174446112844878
13.336,0.017453626488084774
13.34,0.01746795465166823
13.344,0.017491778829707167
13.348,0.017509039939527505
13.352,0.017538609807325578
13.356,0.017574285973026668
13.36,0.017614193274282607
13.364,0.017661048292443946
13.368,0.017711100702814345
13.372,0.017755551666683158
13.376,0.01780375295524831
13.38,0.017846617243284055
13.384,0.017875345692079745
13.388,0.017895299342707713
13.392,0.017887846774400883
13.396,0.01786791716431584
13.4,0.01784070326972444
13.404,0.01780685418528567
13.408,0.017766225667741973
13.412,0.017722327636360443
13.416,0.01766249072501946
13.42,0.0176157078284869
13.424,0.01757346859456721
13.428,0.017532551590508413
13.432,0.01750216434425088
13.436,0.01747754682829541
13.44,0.017450573339133264
13.444,0.017428359877470316
13.448,0.017411507456879707
13.452,0.017395881103978286
13.456,0.01740453569943138
13.46,0.017408213902498946
13.464,0.017419969727989402
13.468,0.017431533229136455
13.472,0.017440115702960775
13.476,0.017449251109272375
13.48,0.017454323663829607
13.484,0.017445837352176988
13.488,0.017444394919601473
13.492,0.01744643836575012
13.496,0.017442639959967927
13.5,0.0174401397435037
13.504,0.017427566539553782
13.508000000000001,0.017403453874999746
13.512,0.017379052723930602
13.516,0.017348473153329668
13.52,0.017311426676681837
13.524000000000001,0.017276904457041158
13.528,0.017230169641594444
13.532,0.017197330259958534
13.536,0.017173001230518167
13.540000000000001,0.01715273505283217
13.544,0.017136940416130272
13.548,0.017115928981613595
13.552,0.017083017478348908
13.556000000000001,0.017052173461775795
13.56,0.017018973471996005
13.564,0.016987408239135134
13.568,0.0169568286685342
13.572000000000001,0.0169133393263824
13.576,0.01687424940358592
13.58,0.01683366896712807
13.584,0.016793713584786284
13.588000000000001,0.016759864500347513
13.592,0.016733660308558978
13.596,0.016699546778148028
13.6,0.016685098411849945
13.604000000000001,0.01668024222217904
13.608,0.016678102613858693
13.612,0.01668846408785948
13.616,0.016699426575433402
13.620000000000001,0.016712913320014476
13.624,0.01673993489026247
13.628,0.016776789042566898
13.632,0.016819701411688495
13.636000000000001,0.016870426957260803
13.64,0.01690576655536094
13.644,0.016941466761604955
13.648,0.016977070805677272
13.652000000000001,0.01700962170079808
13.656,0.01704154754180283
13.66,0.017073737828779755
13.664,0.0170937636010365
13.668000000000001,0.017115376049126312
13.672,0.01712518459063982
13.676,0.017125665401498326
13.68,0.0171279252125333
13.684000000000001,0.01712225164440294
13.688,0.017127035712445067
13.692,0.017140233970511034
13.696,0.017156485377528514
13.700000000000001,0.017172400216945036
13.704,0.01718913243482102
13.708,0.017182304920630245
13.712,0.01717441962255076
13.716000000000001,0.017158408620962535
13.72,0.017129319564022964
13.724,0.017089965195254308
13.728,0.017033518000465788
13.732000000000001,0.016958872114682846
13.736,0.01688638987776318
13.74,0.016810061153975462
13.744,0.01674495936373385
13.748000000000001,0.016704162562389678
13.752,0.016676708262369028
13.756,0.01667394359993262
13.76,0.016696734034625772
13.764000000000001,0.016736569214252935
13.768,0.01678784769231252
13.772,0.016848694306456365
13.776,0.016899251568228194
13.780000000000001,0.016957958574051687
13.784,0.017020343782942746
13.788,0.017079219072566716
13.792,0.017134969091610403
13.796000000000001,0.01717648710924233
13.8,0.01720182584148556
13.804,0.017223726776090475
13.808,0.017239857980393326
13.812000000000001,0.017248344292045945
13.816,0.017253537049317803
13.82,0.017242887088801912
13.824,0.01723593937189651
13.828,0.01722399122206265
13.832,0.017206561828441835
13.836,0.017192858718974437
13.84,0.01718091056914058
13.844,0.01716648624338542
13.848,0.017171005865455374
13.852,0.01718857950233374
13.856,0.017210456396395728
13.86,0.017238896358676318
13.864,0.017266639145212072
13.868,0.01729303566134401
13.872,0.0173196725829052
13.876,0.017336933692725542
13.88,0.017342390895969576
13.884,0.017344386261032373
13.888,0.017330370624506944
13.892,0.017318542677387715
13.896,0.01730171429734003
13.9,0.01728649663366834
13.904,0.01727873153830348
13.908,0.017269043199504598
13.912,0.017250075211136563
13.916,0.01724118021025422
13.92,0.01723360743923276
13.924,0.01722567406006742
13.928,0.017221226559626247
13.932,0.017200623814339296
13.936,0.017185165745238352
13.94,0.01717021252753884
13.944,0.01715468233680912
13.948,0.01713811840273361
13.952,0.01711905425219388
13.956,0.017090758533170842
13.96,0.017077151585875146
13.964,0.01707296853140615
13.968,0.017076382288501536
13.972,0.017089316100595327
13.976,0.017099533331338564
13.98,0.017106096399557163
13.984,0.01711208249474555
13.988,0.017110279454026156
13.992,0.017098403425821078
13.996,0.017074266720724113
14.0,0.017021978539861662
14.004,0.016961684858205102
14.008000000000001,0.01689627054090546
14.012,0.01683104854794922
14.016,0.016777462177768807
14.02,0.016739333876689338
14.024000000000001,0.01671151896852481
14.028,0.01670663873831098
14.032,0.01671659152308204
14.036,0.01674029549840635
14.040000000000001,0.01677445710990315
14.044,0.016800757463863385
14.048,0.016840424359690076
14.052,0.016880980755604996
14.056000000000001,0.016918075313338676
14.06,0.016949376100227367
14.064,0.016974979278442773
14.068,0.016980749008744838
14.072000000000001,0.016986037928188393
14.076,0.01698606196873132
14.08,0.016983730036067568
14.084,0.01698478781995628
14.088000000000001,0.016983297306294914
14.092,0.016984523373984102
14.096,0.016999164064625587
14.1,0.01701959852611206
14.104000000000001,0.017044817055640666
14.108,0.017073833990951456
14.112,0.017084003140608844
14.116,0.017091551871087376
14.120000000000001,0.017092537533347312
14.124,0.017083402127035713
14.128,0.01707265600434812
14.132,0.017064674544096933
14.136000000000001,0.01704849525870823
14.14,0.017037051960275804
14.144,0.017026858770075492
14.148,0.017013708593095374
14.152000000000001,0.017007217646505552
14.156,0.01699738506444912
14.16,0.016987408239135134
14.164,0.016984258928011926
14.168000000000001,0.016982023157519874
14.172,0.01697798434630843
14.176,0.01697387341346821
14.18,0.016959713533685233
14.184000000000001,0.01695889615522577
14.188,0.016964112953040553
14.192,0.016967214183077912
14.196,0.016968223885880776
14.200000000000001,0.01696478608824246
14.204,0.01695976161477108
14.208,0.01695983373639986
14.212,0.016960891520288568
14.216000000000001,0.016969594196827514
14.22,0.01698300881977981
14.224,0.016986662982304453
14.228,0.016993706861381554
14.232000000000001,0.01700728976813433
14.236,0.017022002580404587
14.24,0.01703844631176547
14.244,0.017058664408365617
14.248000000000001,0.01706691031458898
14.252,0.017084195464952247
14.256,0.017097946655505496
14.26,0.017107154183445872
14.264000000000001,0.017119174454908504
14.268,0.01712285265797607
14.272,0.017117659900704213
14.276,0.01711133723791487
14.280000000000001,0.017096023412071476
14.284,0.017073497423350504
14.288,0.0170549381242122
14.292,0.01702690685116134
14.296000000000001,0.0170095495791693
14.3,0.016995365658843395
14.304,0.016977094846220196
14.308,0.016962141628520683
14.312000000000001,0.01694564981607395
14.316,0.016919085016141536
14.32,0.01690627140676237
14.324,0.016900477635917382
14.328000000000001,0.016899491973657445
14.332,0.016909180312456328
14.336,0.016915478934702747
14.34,0.016921320786633585
14.344,0.0169387501802544
14.348,0.01697368108912481
14.352,0.01702950322979727
14.356,0.017101769101830613
14.36,0.017159875094080974
14.364,0.01721502409955153
14.368,0.017264138928747844
14.372,0.017303685621859903
14.376,0.017332245786855115
14.38,0.017342126449997396
14.384,0.017322196839912353
14.388,0.017284236822633366
14.392,0.017226154870925926
14.396,0.017154273647579387
14.4,0.017082152018803597
14.404,0.017003347119094583
14.408,0.016940312815544544
14.412,0.01689653498687764
14.416,0.016867181483965894
14.42,0.01685665172616463
14.424,0.016858863456113753
14.428,0.016858791334484976
14.432,0.016872999295353807
14.436,0.016890428688974623
14.44,0.016910598704488917
14.444,0.01693338913918207
14.448,0.016950097316515127
14.452,0.016956011290074742
14.456,0.016964233155755182
14.46,0.016965266899100967
14.464,0.01696259839883626
14.468,0.016962886885351365
14.472,0.016946851843220215
14.476,0.016932090949864104
14.48,0.01691312296149607
14.484,0.016887471702194814
14.488,0.016862301253752064
14.492,0.01683958294068769
14.496,0.01680840235651362
14.5,0.01679342509827118
14.504,0.016792343273839543
14.508000000000001,0.016804868396703608
14.512,0.01684018395426082
14.516,0.016879345998686075
14.52,0.016922042002921342
14.524000000000001,0.016965675588330696
14.528,0.017003226916379958
14.532,0.017036859635932402
14.536,0.01706315998989264
14.540000000000001,0.017072343477290093
14.544,0.017084243546038096
14.548,0.017086383154358446
14.552,0.017081118275457812
14.556000000000001,0.017075372585698675
14.56,0.01706255897631951
14.564,0.017039167528053227
14.568,0.017023252688636702
14.572000000000001,0.0170046933894984
14.576,0.016988466023023847
14.58,0.016982215481863277
14.584,0.016967454588507166
14.588000000000001,0.01695824706056679
14.592,0.016955434317044535
14.596,0.016949880951628797
14.6,0.016940913829117676
14.604000000000001,0.016932764085066013
14.608,0.016909180312456328
14.612,0.01689499639213042
14.616,0.016888505445540603
14.620000000000001,0.016885428256046168
14.624,0.016892255770236942
14.628,0.01689627054090546
14.632,0.016903122095639163
14.636000000000001,0.01692011875948732
14.64,0.01693449500415663
14.644,0.016942428383321967
14.648,0.016949640546199546
14.652000000000001,0.01693750007202229
14.656,0.016930047503715455
14.66,0.016919758151343445
14.664,0.016907617677166184
14.668000000000001,0.01689795337891023
14.672,0.01688521189115984
14.676,0.016859656794030287
14.68,0.016841674467922188
14.684000000000001,0.01682794731791186
14.688,0.016816287654593108
14.692,0.01681729735739597
14.696,0.016811695910894382
14.700000000000001,0.016805733856248915
14.704,0.016803714450643194
14.708,0.016798641896085962
14.712,0.016793665503700435
14.716000000000001,0.016799940085403926
14.72,0.01679703117970997
14.724,0.016804676072360206
14.728,0.01681347491107085
14.732000000000001,0.016822442033581974
14.736,0.016837659697253666
14.74,0.016849199157857795
14.744,0.016854175550243326
14.748000000000001,0.01686561884867575
14.752,0.01687278293046748
14.756,0.016876653457878445
14.76,0.01688357713424092
14.764000000000001,0.01688251935035221
14.768,0.01689009212137367
14.772,0.016904949176901482
14.776,0.016919133097227385
14.780000000000001,0.01693591339618922
14.784,0.016951515708547717
14.788,0.01695916060119795
14.792,0.016975123521700324
14.796000000000001,0.016993803023553255
14.8,0.01701575203924402
14.804,0.01704099460931555
14.808,0.01705282255643478
14.812000000000001,0.017052389826662122
14.816,0.017047100907218567
14.82,0.017031666878660544
14.824,0.01701214595780523
14.828000000000001,0.016994355956040534
14.832,0.016962838804265516
14.836,0.01693449500415663
14.84,0.016909949609829937
14.844000000000001,0.016889539188886388
14.848,0.016873888795442042
14.852,0.016861195388777502
14.856,0.016843429427555734
14.86,0.016837058683680534
14.864,0.016836986562051758
14.868,0.016835616251105016
14.872,0.016839294454172586
14.876,0.01683585665653427
14.88,0.016837299089109786
14.884,0.01684734803605255
14.888,0.016860930942805323
14.892,0.016878264174254438
14.896,0.016900213189945206
14.9,0.016910670826117694
14.904,0.01693139377411927
14.908,0.01694956842457077
14.912,0.016963920628697154
14.916,0.01698048456277266
14.92,0.0169933702937806
14.924,0.016995894550787753
14.928,0.01700315479475118
14.932,0.01700870816016692
14.936,0.017010150592742433
14.94,0.01701265080920666
14.944,0.016997962037479324
14.948,0.016988177536508744
14.952,0.016981614468290145
14.956,0.016970868345602554
14.96,0.016958174938938014
14.964,0.016944519910556465
14.968,0.01692011875948732
14.972,0.016908266771825168
14.976,0.0169020162306646
14.98,0.016900333392659832
14.984,0.016908939907027076
14.988,0.016910502542317216
14.992,0.016907233028479383
14.996,0.016909589001686057
15.0,0.01691540681307397
15.004,0.01692338827332516
15.008000000000001,0.01693733178822181
15.012,0.016945265167387147
15.016,0.016969858642799693
15.02,0.016997601429335447
15.024000000000001,0.017024262391439563
15.028,0.017049504961511093
15.032,0.0170685450715079
15.036,0.017081166356543664
15.040000000000001,0.017109846724253502
15.044,0.017145546930497517
15.048,0.017181391379999085
15.052,0.017216346329412418
15.056000000000001,0.01723603553406821
15.06,0.017255484333294747
15.064,0.017279717200563413
15.068,0.017300584391822544
15.072000000000001,0.017307580189813796
15.076,0.017303661581316975
15.08,0.017277625673328918
15.084,0.017251132995025276
15.088000000000001,0.0172194715999927
15.092,0.017167447865102433
15.096,0.017099701615139042
15.1,0.017022531472348945
15.104000000000001,0.016946491235076338
15.108,0.016892616378380822
15.112,0.016856579604535852
15.116,0.01683677019716543
15.120000000000001,0.01683763565671074
15.124,0.016837371210738562
15.128,0.016843982360043013
15.132,0.01685573818553347
15.136000000000001,0.016868599875998484
15.14,0.01688434643161453
15.144,0.016899684298000848
15.148,0.016899251568228194
15.152000000000001,0.016906848379792578
15.156,0.016914685596786213
15.16,0.016923340192239306
15.164,0.01693682693682038
15.168000000000001,0.016940264734458692
15.172,0.016934831571757583
15.176,0.01692896567928382
15.18,0.01691480579950084
15.184000000000001,0.016894731946158245
15.188,0.016875451430732182
15.192,0.01684181871117974
15.196,0.016818595546713933
15.200000000000001,0.016805012639961158
15.204,0.016800060288118555
15.208,0.016809171653887227
15.212,0.016823547898556536
15.216000000000001,0.016830159047860983
15.22,0.01684624217107799
15.224,0.016860209726517566
15.228,0.01687136453843489
15.232000000000001,0.016884130066728203
15.236,0.01688694281025046
15.24,0.016895837811132807
15.244,0.016913651853440428
15.248000000000001,0.016934783490671734
15.252,0.016958174938938014
15.256,0.01697865748151034
15.26,0.016983345387380763
15.264000000000001,0.016993081807265498
15.268,0.01700173640271859
15.272,0.017009789984598553
15.276,0.017022218945290917
15.280000000000001,0.017032219811147824
15.284,0.017038013581992816
15.288,0.01705077911028613
15.292,0.01705996259768358
15.296000000000001,0.01706164543568835
15.3,0.017060034719312358
15.304,0.017038830960452275
15.308,0.017022507431806017
15.312000000000001,0.01700438086244037
15.316,0.016983946400953895
15.32,0.01697363300803896
15.324,0.01697185400786249
15.328000000000001,0.016964906290957087
15.332,0.01697620534613196
15.336,0.01700072669991573
15.34,0.017028902216224138
15.344000000000001,0.017057197935247174
15.348,0.017072127112403763
15.352,0.017080060491569102
15.356,0.01708316172160646
15.36,0.017079627761796445
15.364,0.01707046831494192
15.368,0.017059481786825075
15.372,0.01702996000011285
15.376,0.017005366524700305
15.38,0.016980340319515105
15.384,0.016957309479392706
15.388,0.01693819724776712
15.392,0.01691535873198812
15.396,0.01688516381007399
15.4,0.016862709942981793
15.404,0.016835976859248897
15.408,0.016809940951260836
15.412,0.01679073255746355
15.416,0.016768374852543056
15.42,0.016767100703768016
15.424,0.016776043785736217
15.428,0.016788785273486605
15.432,0.016812369046096287
15.436,0.016845352670989754
15.44,0.01686881624088481
15.444,0.01690139117654854
15.448,0.016929037800912594
15.452,0.016949832870542948
15.456,0.016971733805147864
15.46,0.01698274437380763
15.464,0.016983850238782197
15.468,0.016986662982304453
15.472,0.01698062880603021
15.476,0.01696839216968125
15.48,0.016955530479216236
15.484,0.016928484868425315
15.488,0.01690744939336571
15.492,0.016891895162093065
15.496,0.01688074035017574
15.5,0.016871701106035843
15.504,0.016863479240355403
15.508000000000001,0.016844439130358595
15.512,0.016835063318617737
15.516,0.01682946187211615
15.52,0.016828788736914242
15.524000000000001,0.016836481710650327
15.528,0.016833260277898342
15.532,0.0168340776563578
15.536,0.01683677019716543
15.540000000000001,0.016841025373263208
15.544,0.016840400319147148
15.548,0.01684109749489198
15.552,0.016831337034464322
15.556000000000001,0.016828572372027915
15.56,0.016829533993744927
15.564,0.016832490980524733
15.568,0.016840568602947626
15.572000000000001,0.016846722981936495
15.576,0.016847564400938878
15.58,0.016855497780104214
15.584,0.01686908068685699
15.588000000000001,0.01688855352662645
15.592,0.01691728197542214
15.596,0.016935793193474595
15.6,0.016955626641387937
15.604000000000001,0.01697495523789985
15.608,0.016988922793339425
15.612,0.016998058199651025
15.616,0.017002986510950707
15.620000000000001,0.01698856218519555
15.624,0.016975772616359307
15.628,0.016962285871778233
15.632,0.016948077910909402
15.636000000000001,0.016939952207400664
15.64,0.01692221028672182
15.644,0.016907810001509586
15.648,0.016898578433026286
15.652000000000001,0.01689420305421389
15.656,0.016889659391601013
15.66,0.01688999595920197
15.664,0.016878288214797366
15.668000000000001,0.01687302333589673
15.672,0.016867229565051742
15.676,0.016861628118550156
15.68,0.016854848685445234
15.684000000000001,0.016846554698136017
15.688,0.016826552966422194
15.692,0.016811383383836354
15.696,0.016794218436187714
15.700000000000001,0.016773399326014436
15.704,0.01676085016260745
15.708,0.0167405359038356
15.712,0.016724308537361048
15.716000000000001,0.016717937793485856
15.72,0.016714788482362644
15.724,0.016714884644534345
15.728,0.016720341847778382
15.732000000000001,0.016720077401806203
15.736,0.016730174429834814
15.74,0.016737795281942122
15.744,0.01674760382345563
15.748000000000001,0.016769336474260068
15.752,0.01679159801700886
15.756,0.016810614086462745
15.76,0.016843838116785463
15.764000000000001,0.01687881710674172
15.768,0.016899588135829147
15.772,0.01690728110956523
15.776,0.016892880824352998
15.780000000000001,0.016888986256399105
15.784,0.01690088632514711
15.788,0.016920960178489708
15.792,0.016947861546023076
15.796000000000001,0.016977070805677272
15.8,0.016992168266634338
15.804,0.017012073836176454
15.808,0.01702885413513829
15.812000000000001,0.01704424008261046
15.816,0.017047894245135097
15.82,0.017018564782766275
15.824,0.01696519477747219
15.828000000000001,0.01690932455571388
15.832,0.016851074320205967
15.836,0.01680287303164081
15.84,0.01677246174484035
15.844000000000001,0.016745969066536713
15.848,0.016741786012067716
15.852,0.016750584850778363
15.856,0.016763302297985828
15.860000000000001,0.016790035381718717
15.864,0.01681460481658834
15.868,0.016831962088580378
15.872,0.01685085795531964
15.876,0.016861027104977024
15.88,0.016866580470392762
15.884,0.01687124433572026
15.888,0.016860570334661446
15.892,0.016844030441128865
15.896,0.016828163682798186
15.9,0.016808883167372127
15.904,0.016788184259913474
15.908,0.01677373589361539
15.912,0.016750320404806184
15.916,0.016739045390174234
15.92,0.016730871605579647
15.924,0.016722505496641654
15.928,0.016718995577374565
15.932,0.016713562414673457
15.936,0.016709764008891265
15.94,0.016724717226590777
15.944,0.01675286870235626
15.948,0.016794987733561324
15.952,0.016846626819764794
15.956,0.01688470703975841
15.96,0.016925047070787
15.964,0.016961516574404627
15.968,0.01698752844184976
15.972,0.017003443281266285
15.976,0.017005558849043707
15.98,0.016992576955864067
15.984,0.01698392236041097
15.988,0.01697459462975597
15.992,0.01696788731827982
15.996,0.016967430547964242
16.0,0.01696017030400081
16.004,0.016952140762663773
16.008,0.01694427950512721
16.012,0.01693550470695949
16.016000000000002,0.016932187112035806
16.02,0.01693850977482515
16.024,0.016938077045052496
16.028,0.016945481532273474
16.032,0.016956588263104946
16.036,0.01696478608824246
16.04,0.01696783923719397
16.044,0.01696134829060415
16.048000000000002,0.01694038493717332
16.052,0.016916200150990504
16.056,0.016877086187651102
16.06,0.016830207128946832
16.064,0.016788280422085175
16.068,0.016742651471613024
16.072,0.016712384428070118
16.076,0.01669997950792068
16.080000000000002,0.016697431210370605
16.084,0.01670897067097473
16.088,0.01672736168631256
16.092,0.016740487822749752
16.096,0.01676657181182366
16.1,0.016795180057904726
16.104,0.01682636064207879
16.108,0.0168566276856217
16.112000000000002,0.016876557295706744
16.116,0.016891678797206735
16.12,0.01691408458321308
16.124,0.016939495437085086
16.128,0.016970507737458673
16.132,0.017005029957099353
16.136,0.01702173813443241
16.14,0.017030585054228907
16.144000000000002,0.017025368256414125
16.148,0.01701281909300714
16.152,0.01699163937468998
16.156,0.016964713966613684
16.16,0.01693002346317253
16.164,0.01690206431175045
16.168,0.016884057945099427
16.172,0.01687703810656525
16.176000000000002,0.016880884593433294
16.18,0.016881124998862546
16.184,0.01687997105280213
16.188,0.016878937309456346
16.192,0.01687429748467177
16.196,0.016870450997803727
16.2,0.016874634052272724
16.204,0.016869152808485763
16.208000000000002,0.016873071416982584
16.212,0.016885788864190048
16.216,0.01690768979879496
16.22,0.016933461260810842
16.224,0.01694706820810654
16.228,0.016947861546023076
16.232,0.01694800578928063
16.236,0.016941586964319584
16.240000000000002,0.01692978305774328
16.244,0.01691992643514392
16.248,0.016896150338190835
16.252,0.016870066349116926
16.256,0.01685268503658196
16.26,0.016835231602418215
16.264,0.016826721250222672
16.268,0.01682809156116941
16.272000000000002,0.016818258979112977
16.276,0.016818283019655902
16.28,0.01682179293892299
16.284,0.016824677804074022
16.288,0.016830159047860983
16.292,0.016826889534023146
16.296,0.01681813877639835
16.3,0.0168156145193912
16.304000000000002,0.016816431897850658
16.308,0.016820711114491356
16.312,0.016833140075183717
16.316,0.01683600089979182
16.32,0.01684840581994126
16.324,0.01686287822678227
16.328,0.016878744985112944
16.332,0.01689439537855729
16.336000000000002,0.016903362501068414
16.34,0.016897328324794174
16.344,0.016894130932585114
16.348,0.016888144837396722
16.352,0.01688049994474649
16.356,0.016876677498421373
16.36,0.016860209726517566
16.364,0.016839462737973064
16.368000000000002,0.016828620453113768
16.372,0.01682032646580455
16.376,0.01681585492482045
16.38,0.01681679250599454
16.384,0.016803978896615373
16.388,0.016793665503700435
16.392,0.0167814529078944
16.396,0.016761330973465955
16.4,0.016741593687724314
16.404,0.016722385293927028
16.408,0.016699811224120207
16.412,0.0166900026826067
16.416,0.0166855311416226
16.42,0.016675458154136916
16.424,0.016663485963760133
16.428,0.016642089880556647
16.432,0.016627449189915162
16.436,0.01662045339192391
16.44,0.01661792913491676
16.444,0.016626535649284003
16.448,0.01664817213791674
16.452,0.016671034694238664
16.456,0.016708922589888882
16.46,0.016751474350866595
16.464,0.016791381652122534
16.468,0.016828572372027915
16.472,0.01685136280672107
16.476,0.016863984091756833
16.48,0.016864272578271937
16.484,0.01684076092729103
16.488,0.01681474905984589
16.492,0.016799363112373723
16.496,0.016778688245457994
16.5,0.016777197731796627
16.504,0.016792054787324442
16.508,0.016815590478848275
16.512,0.01684506418447465
16.516000000000002,0.016880427823117713
16.52,0.016915430853616895
16.524,0.01696519477747219
16.528,0.017017603161049263
16.532,0.017064049489980877
16.536,0.01710422123720899
16.54,0.017125737523127103
16.544,0.01713965699748083
16.548000000000002,0.017159634688651722
16.552,0.017191656691828174
16.556,0.01724014646690843
16.56,0.017298637107845596
16.564,0.017344121815060193
16.568,0.017390183495305
16.572,0.017414704849088768
16.576,0.017430114837103865
16.580000000000002,0.017438649229842333
16.584,0.017426244309692893
16.588,0.017389678643903568
16.592,0.017331284165138103
16.596,0.017251637846426707
16.6,0.01717264062237429
16.604,0.01711015925131153
16.608,0.017046451812559583
16.612000000000002,0.01700209701086247
16.616,0.016977767981422105
16.62,0.016963800425982525
16.624,0.016966156399189202
16.628,0.016977695859793328
16.632,0.016979426778883946
16.636,0.016990894117859298
16.64,0.017001351754031786
16.644000000000002,0.017011328579345772
16.648,0.01703051293260013
16.652,0.017040032987598538
16.656,0.017039287730767856
16.66,0.017040513798457044
16.664,0.01703371032480919
16.668,0.01701584820141572
16.672,0.016994572320926864
16.676000000000002,0.016953823600668542
16.68,0.016914877921129615
16.684,0.016879442160857776
16.688,0.016854175550243326
16.692,0.016838308791912646
16.696,0.016826072155563688
16.7,0.01682352385801361
16.704,0.016838981927114558
16.708000000000002,0.016852156144637604
16.712,0.016868623916541408
16.716,0.016895429121903078
16.72,0.016915478934702747
16.724,0.01693295640940941
16.728,0.01694641911344756
16.732,0.0169614925338617
16.736,0.016976085143417335
16.740000000000002,0.01698392236041097
16.744,0.016974522508127192
16.748,0.01696555538561607
16.752,0.016952741776236905
16.756,0.016935985517817997
16.76,0.016920575529802903
16.764,0.016905742514818016
16.768,0.016888505445540603
16.772000000000002,0.01688054802583234
16.776,0.016878889228370497
16.78,0.01689521275701675
16.784,0.016925455760016733
16.788,0.016951395505833092
16.792,0.016979595062684424
16.796,0.017009789984598553
16.8,0.01703962429836881
