0,-3.44E-04
0.004,-3.49E-04
0.008,-3.52E-04
0.012,-3.53E-04
0.016,-3.59E-04
0.02,-3.65E-04
0.024,-3.68E-04
0.028,-3.70E-04
0.032,-3.70E-04
0.036,-3.73E-04
0.04,-3.76E-04
0.044,-3.76E-04
0.048,-3.79E-04
0.052,-3.83E-04
0.056,-3.88E-04
0.06,-3.92E-04
0.064,-3.93E-04
0.068,-3.88E-04
0.072,-3.82E-04
0.076,-3.77E-04
0.08,-3.76E-04
0.084,-3.79E-04
0.088,-3.82E-04
0.092,-3.79E-04
0.096,-3.70E-04
0.1,-3.60E-04
0.104,-3.53E-04
0.108,-3.50E-04
0.112,-3.49E-04
0.116,-3.49E-04
0.12,-3.48E-04
0.124,-3.43E-04
0.128,-3.30E-04
0.132,-3.11E-04
0.136,-2.93E-04
0.14,-2.77E-04
0.144,-2.69E-04
0.148,-2.65E-04
0.152,-2.63E-04
0.156,-2.65E-04
0.16,-2.69E-04
0.164,-2.71E-04
0.168,-2.73E-04
0.172,-2.75E-04
0.176,-2.77E-04
0.18,-2.79E-04
0.184,-2.79E-04
0.188,-2.77E-04
0.192,-2.76E-04
0.196,-2.77E-04
0.2,-2.79E-04
0.204,-2.83E-04
0.208,-2.90E-04
0.212,-2.95E-04
0.216,-2.99E-04
0.22,-2.97E-04
0.224,-2.92E-04
0.228,-2.88E-04
0.232,-2.91E-04
0.236,-2.96E-04
0.24,-2.90E-04
0.244,-2.78E-04
0.248,-2.69E-04
0.252,-2.62E-04
0.256,-2.58E-04
0.26,-2.56E-04
0.264,-2.55E-04
0.268,-2.55E-04
0.272,-2.56E-04
0.276,-2.56E-04
0.28,-2.58E-04
0.284,-2.62E-04
0.288,-2.64E-04
0.292,-2.66E-04
0.296,-2.71E-04
0.3,-2.77E-04
0.304,-2.85E-04
0.308,-2.87E-04
0.312,-2.79E-04
0.316,-2.67E-04
0.32,-2.59E-04
0.324,-2.54E-04
0.328,-2.53E-04
0.332,-2.55E-04
0.336,-2.57E-04
0.34,-2.58E-04
0.344,-2.61E-04
0.348,-2.64E-04
0.352,-2.69E-04
0.356,-2.72E-04
0.36,-2.74E-04
0.364,-2.77E-04
0.368,-2.76E-04
0.372,-2.75E-04
0.376,-2.72E-04
0.38,-2.64E-04
0.384,-2.58E-04
0.388,-2.56E-04
0.392,-2.57E-04
0.396,-2.57E-04
0.4,-2.58E-04
0.404,-2.59E-04
0.408,-2.65E-04
0.412,-2.74E-04
0.416,-2.80E-04
0.42,-2.83E-04
0.424,-2.85E-04
0.428,-2.91E-04
0.432,-2.92E-04
0.436,-2.82E-04
0.44,-2.65E-04
0.444,-2.51E-04
0.448,-2.47E-04
0.452,-2.51E-04
0.456,-2.56E-04
0.46,-2.61E-04
0.464,-2.66E-04
0.468,-2.71E-04
0.472,-2.75E-04
0.476,-2.80E-04
0.48,-2.46E-04
0.484,-2.39E-04
0.488,-2.36E-04
0.492,-2.42E-04
0.496,-2.54E-04
0.5,-2.67E-04
0.504,-2.76E-04
0.508,-2.85E-04
0.512,-2.93E-04
0.516,-2.99E-04
0.52,-3.03E-04
0.524,-3.08E-04
0.528,-3.13E-04
0.532,-3.14E-04
0.536,-3.16E-04
0.54,-3.17E-04
0.544,-3.18E-04
0.548,-3.20E-04
0.552,-3.23E-04
0.556,-3.22E-04
0.56,-3.19E-04
0.564,-3.17E-04
0.568,-3.18E-04
0.572,-3.24E-04
0.576,-3.31E-04
0.58,-3.28E-04
0.584,-3.15E-04
0.588,-3.06E-04
0.592,-3.03E-04
0.596,-3.00E-04
0.6,-2.96E-04
0.604,-2.91E-04
0.608,-2.89E-04
0.612,-2.88E-04
0.616,-2.92E-04
0.62,-2.97E-04
0.624,-3.00E-04
0.628,-3.04E-04
0.632,-3.07E-04
0.636,-3.10E-04
0.64,-3.12E-04
0.644,-3.13E-04
0.648,-3.15E-04
0.652,-3.15E-04
0.656,-3.13E-04
0.66,-3.10E-04
0.664,-3.09E-04
0.668,-3.10E-04
0.672,-3.15E-04
0.676,-3.19E-04
0.68,-3.17E-04
0.684,-3.12E-04
0.688,-3.09E-04
0.692,-3.07E-04
0.696,-3.06E-04
0.7,-3.05E-04
0.704,-3.05E-04
0.708,-3.03E-04
0.712,-3.02E-04
0.716,-3.00E-04
0.72,-2.99E-04
0.724,-2.99E-04
0.728,-2.99E-04
0.732,-3.01E-04
0.736,-3.04E-04
0.74,-3.03E-04
0.744,-2.98E-04
0.748,-2.90E-04
0.752,-2.86E-04
0.756,-2.87E-04
0.76,-2.89E-04
0.764,-2.91E-04
0.768,-2.92E-04
0.772,-2.91E-04
0.776,-2.91E-04
0.78,-2.91E-04
0.784,-2.90E-04
0.788,-2.88E-04
0.792,-2.86E-04
0.796,-2.88E-04
0.8,-2.92E-04
0.804,-2.96E-04
0.808,-2.93E-04
0.812,-2.84E-04
0.816,-2.75E-04
0.82,-2.68E-04
0.824,-2.58E-04
0.828,-2.50E-04
0.832,-2.51E-04
0.836,-2.55E-04
0.84,-2.56E-04
0.844,-2.53E-04
0.848,-2.52E-04
0.852,-2.52E-04
0.856,-2.53E-04
0.86,-2.50E-04
0.864,-2.49E-04
0.868,-2.54E-04
0.872,-2.59E-04
0.876,-2.60E-04
0.88,-2.58E-04
0.884,-2.62E-04
0.888,-2.73E-04
0.892,-2.87E-04
0.896,-2.85E-04
0.9,-2.60E-04
0.904,-2.29E-04
0.908,-2.05E-04
0.912,-1.88E-04
0.916,-1.78E-04
0.92,-1.75E-04
0.924,-1.78E-04
0.928,-1.86E-04
0.932,-1.98E-04
0.936,-2.11E-04
0.94,-2.20E-04
0.944,-2.24E-04
0.948,-2.30E-04
0.952,-2.38E-04
0.956,-2.51E-04
0.96,-2.60E-04
0.964,-2.60E-04
0.968,-2.47E-04
0.972,-2.29E-04
0.976,-2.18E-04
0.98,-2.15E-04
0.984,-2.13E-04
0.988,-2.09E-04
0.992,-2.07E-04
0.996,-2.06E-04
1,-2.08E-04
1.004,-2.10E-04
1.008,-2.12E-04
1.012,-2.12E-04
1.016,-2.13E-04
1.02,-2.14E-04
1.024,-2.20E-04
1.028,-2.26E-04
1.032,-2.29E-04
1.036,-2.29E-04
1.04,-2.26E-04
1.044,-2.25E-04
1.048,-2.28E-04
1.052,-2.32E-04
1.056,-2.32E-04
1.06,-2.28E-04
1.064,-2.27E-04
1.068,-2.25E-04
1.072,-2.25E-04
1.076,-2.25E-04
1.08,-2.24E-04
1.084,-2.26E-04
1.088,-2.28E-04
1.092,-2.31E-04
1.096,-2.34E-04
1.1,-2.30E-04
1.104,-2.23E-04
1.108,-2.17E-04
1.112,-2.09E-04
1.116,-2.05E-04
1.12,-2.04E-04
1.124,-2.06E-04
1.128,-2.08E-04
1.132,-2.04E-04
1.136,-1.96E-04
1.14,-1.87E-04
1.144,-1.83E-04
1.148,-1.83E-04
1.152,-1.86E-04
1.156,-1.85E-04
1.16,-1.83E-04
1.164,-1.81E-04
1.168,-1.81E-04
1.172,-1.82E-04
1.176,-1.81E-04
1.18,-1.82E-04
1.184,-1.85E-04
1.188,-1.88E-04
1.192,-1.90E-04
1.196,-1.89E-04
1.2,-1.88E-04
1.204,-1.91E-04
1.208,-1.94E-04
1.212,-1.96E-04
1.216,-1.97E-04
1.22,-1.93E-04
1.224,-1.87E-04
1.228,-1.84E-04
1.232,-1.87E-04
1.236,-1.94E-04
1.24,-1.97E-04
1.244,-1.95E-04
1.248,-1.91E-04
1.252,-1.85E-04
1.256,-1.81E-04
1.26,-1.80E-04
1.264,-1.83E-04
1.268,-1.88E-04
1.272,-1.95E-04
1.276,-2.00E-04
1.28,-2.01E-04
1.284,-1.99E-04
1.288,-1.95E-04
1.292,-1.93E-04
1.296,-1.96E-04
1.3,-1.98E-04
1.304,-2.00E-04
1.308,-2.01E-04
1.312,-1.99E-04
1.316,-1.95E-04
1.32,-1.91E-04
1.324,-1.90E-04
1.328,-1.93E-04
1.332,-1.95E-04
1.336,-1.93E-04
1.34,-1.90E-04
1.344,-1.88E-04
1.348,-1.86E-04
1.352,-1.84E-04
1.356,-1.80E-04
1.36,-1.77E-04
1.364,-1.78E-04
1.368,-1.86E-04
1.372,-1.92E-04
1.376,-1.87E-04
1.38,-1.74E-04
1.384,-1.64E-04
1.388,-1.58E-04
1.392,-1.55E-04
1.396,-1.58E-04
1.4,-1.62E-04
1.404,-1.64E-04
1.408,-1.67E-04
1.412,-1.67E-04
1.416,-1.68E-04
1.42,-1.71E-04
1.424,-1.74E-04
1.428,-1.78E-04
1.432,-1.79E-04
1.436,-1.77E-04
1.44,-1.74E-04
1.444,-1.73E-04
1.448,-1.75E-04
1.452,-1.70E-04
1.456,-1.58E-04
1.46,-1.45E-04
1.464,-1.32E-04
1.468,-1.23E-04
1.472,-1.19E-04
1.476,-1.13E-04
1.48,-1.06E-04
1.484,-1.06E-04
1.488,-1.13E-04
1.492,-1.22E-04
1.496,-1.31E-04
1.5,-1.38E-04
1.504,-1.45E-04
1.508,-1.52E-04
1.512,-1.57E-04
1.516,-1.61E-04
1.52,-1.65E-04
1.524,-1.68E-04
1.528,-1.72E-04
1.532,-1.77E-04
1.536,-1.83E-04
1.54,-1.87E-04
1.544,-1.88E-04
1.548,-1.82E-04
1.552,-1.73E-04
1.556,-1.65E-04
1.56,-1.55E-04
1.564,-1.46E-04
1.568,-1.41E-04
1.572,-1.43E-04
1.576,-1.49E-04
1.58,-1.50E-04
1.584,-1.48E-04
1.588,-1.48E-04
1.592,-1.53E-04
1.596,-1.62E-04
1.6,-1.68E-04
1.604,-1.69E-04
1.608,-1.65E-04
1.612,-1.65E-04
1.616,-1.68E-04
1.62,-1.74E-04
1.624,-1.76E-04
1.628,-1.75E-04
1.632,-1.73E-04
1.636,-1.72E-04
1.64,-1.73E-04
1.644,-1.74E-04
1.648,-1.77E-04
1.652,-1.83E-04
1.656,-1.89E-04
1.66,-1.92E-04
1.664,-1.94E-04
1.668,-1.94E-04
1.672,-1.92E-04
1.676,-1.83E-04
1.68,-1.74E-04
1.684,-1.70E-04
1.688,-1.70E-04
1.692,-1.71E-04
1.696,-1.71E-04
1.7,-1.73E-04
1.704,-1.75E-04
1.708,-1.76E-04
1.712,-1.78E-04
1.716,-1.81E-04
1.72,-1.85E-04
1.724,-1.84E-04
1.728,-1.80E-04
1.732,-1.77E-04
1.736,-1.75E-04
1.74,-1.66E-04
1.744,-1.53E-04
1.748,-1.44E-04
1.752,-1.41E-04
1.756,-1.40E-04
1.76,-1.40E-04
1.764,-1.41E-04
1.768,-1.42E-04
1.772,-1.43E-04
1.776,-1.45E-04
1.78,-1.48E-04
1.784,-1.50E-04
1.788,-1.55E-04
1.792,-1.56E-04
1.796,-1.54E-04
1.8,-1.57E-04
1.804,-1.65E-04
1.808,-1.70E-04
1.812,-1.64E-04
1.816,-1.53E-04
1.82,-1.48E-04
1.824,-1.47E-04
1.828,-1.46E-04
1.832,-1.48E-04
1.836,-1.49E-04
1.84,-1.49E-04
1.844,-1.54E-04
1.848,-1.66E-04
1.852,-1.81E-04
1.856,-1.89E-04
1.86,-1.81E-04
1.864,-1.66E-04
1.868,-1.58E-04
1.872,-1.58E-04
1.876,-1.57E-04
1.88,-1.55E-04
1.884,-1.52E-04
1.888,-1.50E-04
1.892,-1.48E-04
1.896,-1.46E-04
1.9,-1.47E-04
1.904,-1.50E-04
1.908,-1.54E-04
1.912,-1.57E-04
1.916,-1.61E-04
1.92,-1.65E-04
1.924,-1.66E-04
1.928,-1.63E-04
1.932,-1.63E-04
1.936,-1.65E-04
1.94,-1.61E-04
1.944,-1.57E-04
1.948,-1.55E-04
1.952,-1.56E-04
1.956,-1.59E-04
1.96,-1.65E-04
1.964,-1.67E-04
1.968,-1.62E-04
1.972,-1.58E-04
1.976,-1.61E-04
1.98,-1.64E-04
1.984,-1.63E-04
1.988,-1.56E-04
1.992,-1.51E-04
1.996,-1.52E-04
2,-1.57E-04
2.004,-1.57E-04
2.008,-1.47E-04
2.012,-1.32E-04
2.016,-1.14E-04
2.02,-9.53E-05
2.024,-8.55E-05
2.028,-8.27E-05
2.032,-8.67E-05
2.036,-9.80E-05
2.04,-1.14E-04
2.044,-1.29E-04
2.048,-1.39E-04
2.052,-1.34E-04
2.056,-1.27E-04
2.06,-1.24E-04
2.064,-1.21E-04
2.068,-1.23E-04
2.072,-1.27E-04
2.076,-1.30E-04
2.08,-1.31E-04
2.084,-1.29E-04
2.088,-1.14E-04
2.092,-9.33E-05
2.096,-8.17E-05
2.1,-8.13E-05
2.104,-8.69E-05
2.108,-9.28E-05
2.112,-9.73E-05
2.116,-1.00E-04
2.12,-1.02E-04
2.124,-9.97E-05
2.128,-9.76E-05
2.132,-9.86E-05
2.136,-9.87E-05
2.14,-9.96E-05
2.144,-1.03E-04
2.148,-1.07E-04
2.152,-1.11E-04
2.156,-1.14E-04
2.16,-1.17E-04
2.164,-1.21E-04
2.168,-1.27E-04
2.172,-1.36E-04
2.176,-1.40E-04
2.18,-1.35E-04
2.184,-1.27E-04
2.188,-1.22E-04
2.192,-1.19E-04
2.196,-1.17E-04
2.2,-1.15E-04
2.204,-1.17E-04
2.208,-1.20E-04
2.212,-1.20E-04
2.216,-1.22E-04
2.22,-1.24E-04
2.224,-1.24E-04
2.228,-1.25E-04
2.232,-1.28E-04
2.236,-1.31E-04
2.24,-1.32E-04
2.244,-1.28E-04
2.248,-1.25E-04
2.252,-1.25E-04
2.256,-1.18E-04
2.26,-1.08E-04
2.264,-1.04E-04
2.268,-1.05E-04
2.272,-1.09E-04
2.276,-1.12E-04
2.28,-1.13E-04
2.284,-1.14E-04
2.288,-1.16E-04
2.292,-1.20E-04
2.296,-1.24E-04
2.3,-1.26E-04
2.304,-1.25E-04
2.308,-1.20E-04
2.312,-1.15E-04
2.316,-1.10E-04
2.32,-1.05E-04
2.324,-1.00E-04
2.328,-8.80E-05
2.332,-6.30E-05
2.336,-3.77E-05
2.34,-2.45E-05
2.344,-2.34E-05
2.348,-2.67E-05
2.352,-3.32E-05
2.356,-4.49E-05
2.36,-5.74E-05
2.364,-6.22E-05
2.368,-6.00E-05
2.372,-5.50E-05
2.376,-5.26E-05
2.38,-5.44E-05
2.384,-5.15E-05
2.388,-4.00E-05
2.392,-2.75E-05
2.396,-1.93E-05
2.4,-1.83E-05
2.404,-2.19E-05
2.408,-2.72E-05
2.412,-3.40E-05
2.416,-4.15E-05
2.42,-4.80E-05
2.424,-5.22E-05
2.428,-5.50E-05
2.432,-5.31E-05
2.436,-5.09E-05
2.44,-5.29E-05
2.444,-5.71E-05
2.448,-5.84E-05
2.452,-5.79E-05
2.456,-5.64E-05
2.46,-5.62E-05
2.464,-5.85E-05
2.468,-6.24E-05
2.472,-6.74E-05
2.476,-7.00E-05
2.48,-6.90E-05
2.484,-6.87E-05
2.488,-7.24E-05
2.492,-8.14E-05
2.496,-9.24E-05
2.5,-9.41E-05
2.504,-8.58E-05
2.508,-7.78E-05
2.512,-7.41E-05
2.516,-7.41E-05
2.52,-7.64E-05
2.524,-7.96E-05
2.528,-8.10E-05
2.532,-8.25E-05
2.536,-8.34E-05
2.54,-8.61E-05
2.544,-9.15E-05
2.548,-9.83E-05
2.552,-1.03E-04
2.556,-1.06E-04
2.56,-9.78E-05
2.564,-8.02E-05
2.568,-5.98E-05
2.572,-4.29E-05
2.576,-3.18E-05
2.58,-2.32E-05
2.584,-1.68E-05
2.588,-1.74E-05
2.592,-2.52E-05
2.596,-3.54E-05
2.6,-4.15E-05
2.604,-4.31E-05
2.608,-4.49E-05
2.612,-4.81E-05
2.616,-5.50E-05
2.62,-6.41E-05
2.624,-7.18E-05
2.628,-7.95E-05
2.632,-8.17E-05
2.636,-7.71E-05
2.64,-7.16E-05
2.644,-7.00E-05
2.648,-6.71E-05
2.652,-6.64E-05
2.656,-6.89E-05
2.66,-7.18E-05
2.664,-7.50E-05
2.668,-7.70E-05
2.672,-7.46E-05
2.676,-7.11E-05
2.68,-6.25E-05
2.684,-4.27E-05
2.688,-2.06E-05
2.692,-1.68E-07
2.696,9.66E-06
2.7,6.73E-06
2.704,-2.50E-06
2.708,-1.16E-05
2.712,-1.69E-05
2.716,-1.92E-05
2.72,-1.64E-05
2.724,-1.63E-05
2.728,-2.07E-05
2.732,-2.04E-05
2.736,-1.75E-05
2.74,-1.78E-05
2.744,-1.90E-05
2.748,-2.18E-05
2.752,-2.75E-05
2.756,-3.57E-05
2.76,-4.41E-05
2.764,-5.20E-05
2.768,-5.63E-05
2.772,-5.92E-05
2.776,-6.71E-05
2.78,-7.55E-05
2.784,-7.66E-05
2.788,-7.72E-05
2.792,-7.78E-05
2.796,-7.49E-05
2.8,-7.04E-05
2.804,-6.83E-05
2.808,-6.93E-05
2.812,-7.43E-05
2.816,-8.14E-05
2.82,-8.60E-05
2.824,-8.87E-05
2.828,-8.58E-05
2.832,-7.83E-05
2.836,-7.13E-05
2.84,-6.93E-05
2.844,-7.16E-05
2.848,-7.63E-05
2.852,-8.12E-05
2.856,-8.54E-05
2.86,-8.96E-05
2.864,-9.44E-05
2.868,-1.00E-04
2.872,-1.06E-04
2.876,-1.09E-04
2.88,-1.11E-04
2.884,-1.11E-04
2.888,-1.09E-04
2.892,-1.06E-04
2.896,-1.06E-04
2.9,-1.06E-04
2.904,-1.04E-04
2.908,-1.00E-04
2.912,-9.79E-05
2.916,-9.48E-05
2.92,-9.12E-05
2.924,-9.30E-05
2.928,-9.62E-05
2.932,-9.86E-05
2.936,-1.01E-04
2.94,-1.03E-04
2.944,-1.06E-04
2.948,-1.15E-04
2.952,-1.22E-04
2.956,-1.18E-04
2.96,-1.11E-04
2.964,-1.06E-04
2.968,-1.06E-04
2.972,-1.06E-04
2.976,-1.06E-04
2.98,-1.07E-04
2.984,-1.06E-04
2.988,-1.05E-04
2.992,-1.05E-04
2.996,-1.06E-04
3,-1.09E-04
3.004,-1.12E-04
3.008,-1.15E-04
3.012,-1.17E-04
3.016,-1.15E-04
3.02,-1.13E-04
3.024,-1.11E-04
3.028,-1.12E-04
3.032,-1.16E-04
3.036,-1.17E-04
3.04,-1.16E-04
3.044,-1.15E-04
3.048,-1.13E-04
3.052,-1.10E-04
3.056,-1.06E-04
3.06,-1.03E-04
3.064,-9.85E-05
3.068,-9.58E-05
3.072,-9.80E-05
3.076,-9.99E-05
3.08,-9.90E-05
3.084,-9.65E-05
3.088,-9.88E-05
3.092,-1.05E-04
3.096,-1.08E-04
3.1,-1.08E-04
3.104,-1.10E-04
3.108,-1.14E-04
3.112,-1.17E-04
3.116,-1.16E-04
3.12,-1.05E-04
3.124,-8.58E-05
3.128,-6.69E-05
3.132,-4.97E-05
3.136,-3.79E-05
3.14,-3.18E-05
3.144,-3.01E-05
3.148,-3.82E-05
3.152,-5.07E-05
3.156,-6.05E-05
3.16,-6.91E-05
3.164,-7.74E-05
3.168,-8.59E-05
3.172,-9.36E-05
3.176,-9.82E-05
3.18,-1.01E-04
3.184,-1.03E-04
3.188,-1.06E-04
3.192,-1.12E-04
3.196,-1.16E-04
3.2,-1.20E-04
3.204,-1.23E-04
3.208,-1.20E-04
3.212,-1.14E-04
3.216,-1.10E-04
3.22,-1.10E-04
3.224,-1.12E-04
3.228,-1.12E-04
3.232,-1.10E-04
3.236,-1.10E-04
3.24,-1.09E-04
3.244,-1.09E-04
3.248,-1.10E-04
3.252,-1.15E-04
3.256,-1.18E-04
3.26,-1.17E-04
3.264,-1.15E-04
3.268,-1.16E-04
3.272,-1.17E-04
3.276,-1.12E-04
3.28,-1.08E-04
3.284,-1.08E-04
3.288,-1.07E-04
3.292,-1.08E-04
3.296,-1.11E-04
3.3,-1.13E-04
3.304,-1.15E-04
3.308,-1.14E-04
3.312,-1.13E-04
3.316,-1.14E-04
3.32,-1.13E-04
3.324,-1.16E-04
3.328,-1.22E-04
3.332,-1.23E-04
3.336,-1.17E-04
3.34,-1.09E-04
3.344,-1.02E-04
3.348,-1.00E-04
3.352,-1.01E-04
3.356,-1.03E-04
3.36,-1.06E-04
3.364,-1.07E-04
3.368,-1.04E-04
3.372,-1.07E-04
3.376,-1.10E-04
3.38,-1.10E-04
3.384,-1.10E-04
3.388,-1.12E-04
3.392,-1.16E-04
3.396,-1.15E-04
3.4,-1.09E-04
3.404,-1.03E-04
3.408,-1.01E-04
3.412,-9.91E-05
3.416,-9.72E-05
3.42,-9.57E-05
3.424,-9.58E-05
3.428,-9.55E-05
3.432,-9.86E-05
3.436,-1.04E-04
3.44,-1.02E-04
3.444,-9.57E-05
3.448,-9.32E-05
3.452,-9.27E-05
3.456,-9.25E-05
3.46,-9.38E-05
3.464,-9.34E-05
3.468,-7.54E-05
3.472,-4.21E-05
3.476,-1.46E-05
3.48,-3.53E-06
3.484,7.93E-07
3.488,2.21E-06
3.492,2.36E-06
3.496,6.25E-07
3.5,-2.57E-06
3.504,-6.47E-06
3.508,-1.49E-05
3.512,-2.36E-05
3.516,-3.33E-05
3.52,-3.95E-05
3.524,-4.61E-05
3.528,-5.35E-05
3.532,-5.56E-05
3.536,-5.48E-05
3.54,-5.38E-05
3.544,-5.07E-05
3.548,-4.71E-05
3.552,-4.68E-05
3.556,-4.68E-05
3.56,-4.67E-05
3.564,-4.52E-05
3.568,-4.43E-05
3.572,-4.41E-05
3.576,-4.37E-05
3.58,-4.50E-05
3.584,-4.84E-05
3.588,-5.13E-05
3.592,-5.28E-05
3.596,-5.86E-05
3.6,-6.35E-05
3.604,-6.09E-05
3.608,-5.46E-05
3.612,-5.30E-05
3.616,-5.68E-05
3.62,-5.94E-05
3.624,-5.69E-05
3.628,-5.47E-05
3.632,-5.51E-05
3.636,-5.64E-05
3.64,-5.89E-05
3.644,-6.48E-05
3.648,-7.09E-05
3.652,-7.51E-05
3.656,-7.81E-05
3.66,-8.03E-05
3.664,-8.29E-05
3.668,-8.82E-05
3.672,-9.64E-05
3.676,-1.03E-04
3.68,-1.05E-04
3.684,-1.00E-04
3.688,-8.73E-05
3.692,-6.86E-05
3.696,-4.70E-05
3.7,-2.77E-05
3.704,-1.77E-05
3.708,-1.66E-05
3.712,-2.02E-05
3.716,-2.66E-05
3.72,-3.42E-05
3.724,-4.07E-05
3.728,-4.74E-05
3.732,-6.01E-05
3.736,-7.28E-05
3.74,-8.31E-05
3.744,-8.70E-05
3.748,-8.60E-05
3.752,-8.50E-05
3.756,-8.56E-05
3.76,-8.62E-05
3.764,-8.53E-05
3.768,-8.45E-05
3.772,-8.22E-05
3.776,-8.24E-05
3.78,-8.60E-05
3.784,-8.93E-05
3.788,-9.10E-05
3.792,-9.35E-05
3.796,-9.73E-05
3.8,-1.00E-04
3.804,-1.01E-04
3.808,-1.01E-04
3.812,-1.02E-04
3.816,-1.02E-04
3.82,-1.04E-04
3.824,-1.03E-04
3.828,-9.75E-05
3.832,-9.33E-05
3.836,-9.24E-05
3.84,-9.38E-05
3.844,-9.71E-05
3.848,-9.92E-05
3.852,-1.01E-04
3.856,-1.05E-04
3.86,-1.07E-04
3.864,-1.08E-04
3.868,-1.12E-04
3.872,-1.15E-04
3.876,-1.12E-04
3.88,-1.04E-04
3.884,-9.51E-05
3.888,-9.17E-05
3.892,-9.25E-05
3.896,-9.49E-05
3.9,-9.67E-05
3.904,-9.64E-05
3.908,-9.65E-05
3.912,-9.86E-05
3.916,-9.91E-05
3.92,-9.94E-05
3.924,-9.84E-05
3.928,-9.28E-05
3.932,-8.48E-05
3.936,-6.96E-05
3.94,-5.37E-05
3.944,-4.28E-05
3.948,-3.30E-05
3.952,-2.49E-05
3.956,-2.34E-05
3.96,-2.63E-05
3.964,-3.07E-05
3.968,-3.55E-05
3.972,-3.98E-05
3.976,-4.26E-05
3.98,-4.74E-05
3.984,-5.25E-05
3.988,-5.47E-05
3.992,-4.40E-05
3.996,-1.99E-05
4,3.20E-06
4.004,1.94E-05
4.008,3.63E-05
4.012,5.96E-05
4.016,8.44E-05
4.02,1.02E-04
4.024,1.15E-04
4.028,1.26E-04
4.032,1.37E-04
4.036,1.47E-04
4.04,1.53E-04
4.044,1.57E-04
4.048,1.60E-04
4.052,1.64E-04
4.056,1.69E-04
4.06,1.73E-04
4.064,1.72E-04
4.068,1.71E-04
4.072,1.72E-04
4.076,1.73E-04
4.08,1.77E-04
4.084,1.85E-04
4.088,1.95E-04
4.092,1.99E-04
4.096,1.97E-04
4.1,1.89E-04
4.104,1.73E-04
4.108,1.57E-04
4.112,1.38E-04
4.116,1.20E-04
4.12,1.11E-04
4.124,1.15E-04
4.128,1.26E-04
4.132,1.33E-04
4.136,1.29E-04
4.14,1.22E-04
4.144,1.17E-04
4.148,1.10E-04
4.152,1.02E-04
4.156,9.62E-05
4.16,9.21E-05
4.164,8.96E-05
4.168,8.69E-05
4.172,8.45E-05
4.176,7.95E-05
4.18,7.40E-05
4.184,6.83E-05
4.188,6.13E-05
4.192,5.46E-05
4.196,5.24E-05
4.2,5.22E-05
4.204,5.27E-05
4.208,5.12E-05
4.212,4.78E-05
4.216,4.36E-05
4.22,4.23E-05
4.224,3.99E-05
4.228,3.83E-05
4.232,3.72E-05
4.236,3.45E-05
4.24,3.13E-05
4.244,2.53E-05
4.248,2.02E-05
4.252,1.69E-05
4.256,1.49E-05
4.26,2.02E-05
4.264,3.27E-05
4.268,4.89E-05
4.272,6.33E-05
4.276,7.54E-05
4.28,8.40E-05
4.284,8.80E-05
4.288,8.34E-05
4.292,7.28E-05
4.296,6.11E-05
4.3,5.14E-05
4.304,4.17E-05
4.308,3.17E-05
4.312,2.10E-05
4.316,1.25E-05
4.32,1.08E-05
4.324,1.10E-05
4.328,1.04E-05
4.332,1.06E-05
4.336,4.57E-06
4.34,-5.29E-07
4.344,-1.25E-06
4.348,-1.49E-06
4.352,1.06E-06
4.356,3.99E-06
4.36,7.12E-06
4.364,9.28E-06
4.368,9.04E-06
4.372,6.80E-06
4.376,4.11E-06
4.38,2.26E-06
4.384,6.92E-06
4.388,1.16E-05
4.392,1.47E-05
4.396,1.66E-05
4.4,1.16E-05
4.404,5.14E-06
4.408,3.22E-06
4.412,2.00E-06
4.416,-3.85E-07
4.42,-4.06E-06
4.424,-8.13E-06
4.428,-1.06E-05
4.432,-1.19E-05
4.436,-1.27E-05
4.44,-1.28E-05
4.444,-1.35E-05
4.448,-1.38E-05
4.452,-1.58E-05
4.456,-1.75E-05
4.46,-1.97E-05
4.464,-1.91E-05
4.468,-1.80E-05
4.472,-1.84E-05
4.476,-1.99E-05
4.48,-1.92E-05
4.484,-1.68E-05
4.488,-1.26E-05
4.492,-1.42E-05
4.496,-1.59E-05
4.5,-1.80E-05
4.504,-2.22E-05
4.508,-2.23E-05
4.512,-2.03E-05
4.516,-2.00E-05
4.52,-1.84E-05
4.524,-1.62E-05
4.528,-1.39E-05
4.532,-1.22E-05
4.536,-1.11E-05
4.54,-1.01E-05
4.544,-9.40E-06
4.548,-9.04E-06
4.552,-1.19E-05
4.556,-1.56E-05
4.56,-1.77E-05
4.564,-1.57E-05
4.568,-1.59E-05
4.572,-1.83E-05
4.576,-1.94E-05
4.58,-2.34E-05
4.584,-3.06E-05
4.588,-3.16E-05
4.592,-2.71E-05
4.596,-2.60E-05
4.6,-2.71E-05
4.604,-2.74E-05
4.608,-2.57E-05
4.612,-1.98E-05
4.616,-1.47E-05
4.62,-1.34E-05
4.624,-1.13E-05
4.628,-1.05E-05
4.632,-1.08E-05
4.636,-1.08E-05
4.64,-1.32E-05
4.644,-1.52E-05
4.648,-1.79E-05
4.652,-2.17E-05
4.656,-2.40E-05
4.66,-2.24E-05
4.664,-2.37E-05
4.668,-2.89E-05
4.672,-3.34E-05
4.676,-3.10E-05
4.68,-2.49E-05
4.684,-2.26E-05
4.688,-2.26E-05
4.692,-2.09E-05
4.696,-1.86E-05
4.7,-1.51E-05
4.704,-1.56E-05
4.708,-2.09E-05
4.712,-2.39E-05
4.716,-2.10E-05
4.72,-1.56E-05
4.724,-1.43E-05
4.728,-1.47E-05
4.732,-1.50E-05
4.736,-1.69E-05
4.74,-2.10E-05
4.744,-2.27E-05
4.748,-2.45E-05
4.752,-2.73E-05
4.756,-2.62E-05
4.76,-2.33E-05
4.764,-2.41E-05
4.768,-2.34E-05
4.772,-1.88E-05
4.776,-1.66E-05
4.78,-1.60E-05
4.784,-1.33E-05
4.788,-1.11E-05
4.792,-1.14E-05
4.796,-1.50E-05
4.8,-1.78E-05
4.804,-2.14E-05
4.808,-2.67E-05
4.812,-2.90E-05
4.816,-2.94E-05
4.82,-3.12E-05
4.824,-3.30E-05
4.828,-4.04E-05
4.832,-5.02E-05
4.836,-4.71E-05
4.84,-2.98E-05
4.844,-6.47E-06
4.848,1.86E-05
4.852,3.96E-05
4.856,5.02E-05
4.86,5.34E-05
4.864,5.20E-05
4.868,4.52E-05
4.872,3.07E-05
4.876,1.45E-05
4.88,2.55E-06
4.884,-3.41E-06
4.888,-6.54E-06
4.892,-1.09E-05
4.896,-1.72E-05
4.9,-2.21E-05
4.904,-2.33E-05
4.908,-2.43E-05
4.912,-2.33E-05
4.916,-1.97E-05
4.92,-1.77E-05
4.924,-1.90E-05
4.928,-2.26E-05
4.932,-2.51E-05
4.936,-2.46E-05
4.94,-2.59E-05
4.944,-3.17E-05
4.948,-3.65E-05
4.952,-3.86E-05
4.956,-3.81E-05
4.96,-3.62E-05
4.964,-3.72E-05
4.968,-3.99E-05
4.972,-4.08E-05
4.976,-3.95E-05
4.98,-3.43E-05
4.984,-2.80E-05
4.988,-2.38E-05
4.992,-2.13E-05
4.996,-2.13E-05
5,-2.32E-05
5.004,-2.47E-05
5.008,-2.66E-05
5.012,-2.79E-05
5.016,-2.71E-05
5.02,-2.87E-05
5.024,-3.30E-05
5.028,-3.70E-05
5.032,-4.15E-05
5.036,-4.26E-05
5.04,-4.02E-05
5.044,-3.64E-05
5.048,-3.20E-05
5.052,-2.97E-05
5.056,-2.94E-05
5.06,-2.84E-05
5.064,-2.95E-05
5.068,-3.09E-05
5.072,-3.19E-05
5.076,-3.19E-05
5.08,-3.13E-05
5.084,-2.24E-05
5.088,-1.17E-05
5.092,-6.83E-06
5.096,-7.50E-06
5.1,-1.04E-05
5.104,-9.23E-06
5.108,-7.40E-06
5.112,-4.62E-06
5.116,-3.03E-06
5.12,-4.06E-06
5.124,-5.10E-06
5.128,-4.54E-06
5.132,-4.11E-06
5.136,-4.90E-06
5.14,-5.19E-06
5.144,-6.78E-06
5.148,-8.51E-06
5.152,-9.54E-06
5.156,-1.16E-05
5.16,-1.56E-05
5.164,-2.08E-05
5.168,-2.11E-05
5.172,-1.86E-05
5.176,-1.43E-05
5.18,-8.05E-06
5.184,-4.30E-06
5.188,-4.38E-06
5.192,-5.07E-06
5.196,-7.48E-06
5.2,-1.12E-05
5.204,-1.22E-05
5.208,-7.91E-06
5.212,-5.36E-06
5.216,-5.51E-06
5.22,-1.24E-05
5.224,-1.96E-05
5.228,-1.62E-05
5.232,-7.48E-06
5.236,-1.49E-06
5.24,1.01E-06
5.244,6.97E-07
5.248,-4.81E-07
5.252,-3.05E-06
5.256,-4.16E-06
5.26,-3.39E-06
5.264,-4.13E-06
5.268,-6.13E-06
5.272,-7.84E-06
5.276,-7.26E-06
5.28,-7.14E-06
5.284,-9.04E-06
5.288,-1.28E-05
5.292,-1.69E-05
5.296,-1.66E-05
5.3,-1.93E-05
5.304,-2.24E-05
5.308,-1.81E-05
5.312,-1.01E-05
5.316,-2.93E-06
5.32,1.18E-06
5.324,-4.81E-08
5.328,-1.51E-06
5.332,-3.17E-06
5.336,-3.94E-06
5.34,-2.57E-06
5.344,-2.50E-06
5.348,-4.86E-06
5.352,-7.77E-06
5.356,-9.78E-06
5.36,-1.10E-05
5.364,-1.21E-05
5.368,-1.50E-05
5.372,-1.78E-05
5.376,-1.89E-05
5.38,-1.77E-05
5.384,-1.46E-05
5.388,-1.27E-05
5.392,-1.09E-05
5.396,-7.31E-06
5.4,-4.47E-06
5.404,-4.38E-06
5.408,-6.85E-06
5.412,-9.18E-06
5.416,-1.00E-05
5.42,-4.83E-06
5.424,5.67E-06
5.428,1.81E-05
5.432,3.09E-05
5.436,3.66E-05
5.44,3.65E-05
5.444,3.28E-05
5.448,2.63E-05
5.452,2.26E-05
5.456,2.11E-05
5.46,1.33E-05
5.464,4.66E-06
5.468,-2.26E-06
5.472,-3.10E-06
5.476,4.81E-08
5.48,-5.05E-07
5.484,-1.68E-06
5.488,1.92E-06
5.492,3.08E-06
5.496,1.06E-06
5.5,-2.55E-06
5.504,-7.89E-06
5.508,-1.33E-05
5.512,-1.99E-05
5.516,-2.31E-05
5.52,-2.39E-05
5.524,-2.45E-05
5.528,-2.37E-05
5.532,-2.05E-05
5.536,-1.61E-05
5.54,-1.36E-05
5.544,-1.01E-05
5.548,-8.92E-06
5.552,-1.31E-05
5.556,-1.73E-05
5.56,-1.95E-05
5.564,-1.87E-05
5.568,-1.89E-05
5.572,-2.24E-05
5.576,-2.77E-05
5.58,-3.33E-05
5.584,-3.66E-05
5.588,-3.34E-05
5.592,-2.58E-05
5.596,-2.27E-05
5.6,-2.27E-05
5.604,-2.44E-05
5.608,-2.35E-05
5.612,-2.24E-05
5.616,-2.18E-05
5.62,-1.95E-05
5.624,-1.89E-05
5.628,-2.13E-05
5.632,-2.31E-05
5.636,-2.42E-05
5.64,-2.67E-05
5.644,-2.93E-05
5.648,-3.13E-05
5.652,-3.40E-05
5.656,-4.01E-05
5.66,-4.80E-05
5.664,-5.40E-05
5.668,-5.18E-05
5.672,-4.10E-05
5.676,-2.86E-05
5.68,-2.01E-05
5.684,-1.99E-05
5.688,-2.26E-05
5.692,-2.38E-05
5.696,-2.49E-05
5.7,-2.55E-05
5.704,-2.64E-05
5.708,-2.80E-05
5.712,-3.05E-05
5.716,-3.29E-05
5.72,-3.29E-05
5.724,-3.53E-05
5.728,-4.13E-05
5.732,-4.61E-05
5.736,-4.39E-05
5.74,-3.74E-05
5.744,-3.07E-05
5.748,-2.53E-05
5.752,-2.32E-05
5.756,-2.26E-05
5.76,-2.15E-05
5.764,-1.97E-05
5.768,-1.64E-05
5.772,-1.55E-05
5.776,-1.76E-05
5.78,-2.16E-05
5.784,-2.51E-05
5.788,-2.47E-05
5.792,-2.52E-05
5.796,-2.73E-05
5.8,-2.50E-05
5.804,-2.00E-05
5.808,-1.76E-05
5.812,-1.75E-05
5.816,-1.95E-05
5.82,-2.12E-05
5.824,-2.08E-05
5.828,-1.96E-05
5.832,-1.84E-05
5.836,-1.66E-05
5.84,-1.64E-05
5.844,-1.76E-05
5.848,-1.89E-05
5.852,-2.19E-05
5.856,-2.25E-05
5.86,-2.00E-05
5.864,-2.05E-05
5.868,-2.44E-05
5.872,-2.58E-05
5.876,-2.20E-05
5.88,-1.58E-05
5.884,-9.69E-06
5.888,-4.16E-06
5.892,-3.99E-06
5.896,-4.06E-06
5.9,-3.03E-06
5.904,-2.09E-06
5.908,-6.11E-06
5.912,-1.04E-05
5.916,-1.44E-05
5.92,-1.58E-05
5.924,-1.83E-05
5.928,-2.38E-05
5.932,-2.88E-05
5.936,-2.88E-05
5.94,-2.56E-05
5.944,-2.23E-05
5.948,-2.14E-05
5.952,-2.21E-05
5.956,-2.01E-05
5.96,-1.66E-05
5.964,-1.59E-05
5.968,-1.72E-05
5.972,-1.88E-05
5.976,-2.31E-05
5.98,-2.88E-05
5.984,-3.66E-05
5.988,-4.37E-05
5.992,-4.15E-05
5.996,-2.70E-05
6,-1.00E-05
6.004,1.75E-06
6.008,1.11E-05
6.012,2.45E-05
6.016,4.04E-05
6.02,4.53E-05
6.024,3.66E-05
6.028,2.44E-05
6.032,1.89E-05
6.036,1.82E-05
6.04,1.46E-05
6.044,8.44E-06
6.048,1.80E-06
6.052,-4.35E-06
6.056,-1.00E-05
6.06,-1.42E-05
6.064,-2.19E-05
6.068,-3.07E-05
6.072,-3.37E-05
6.076,-2.88E-05
6.08,-2.41E-05
6.084,-2.23E-05
6.088,-2.11E-05
6.092,-1.90E-05
6.096,-1.67E-05
6.1,-1.50E-05
6.104,-1.25E-05
6.108,-1.25E-05
6.112,-1.34E-05
6.116,-1.60E-05
6.12,-1.91E-05
6.124,-1.81E-05
6.128,-1.50E-05
6.132,-1.72E-05
6.136,-1.95E-05
6.14,-1.76E-05
6.144,-1.32E-05
6.148,-1.22E-05
6.152,-1.48E-05
6.156,-1.49E-05
6.16,-1.29E-05
6.164,-1.37E-05
6.168,-1.54E-05
6.172,-1.64E-05
6.176,-2.04E-05
6.18,-2.54E-05
6.184,-2.79E-05
6.188,-2.92E-05
6.192,-3.02E-05
6.196,-3.06E-05
6.2,-3.20E-05
6.204,-3.64E-05
6.208,-4.33E-05
6.212,-4.45E-05
6.216,-3.55E-05
6.22,-2.53E-05
6.224,-2.43E-05
6.228,-2.82E-05
6.232,-2.79E-05
6.236,-2.00E-05
6.24,-1.21E-05
6.244,-8.77E-06
6.248,-7.62E-06
6.252,-8.68E-06
6.256,-1.01E-05
6.26,-7.81E-06
6.264,-4.01E-06
6.268,-6.85E-06
6.272,-1.13E-05
6.276,-1.41E-05
6.28,-1.45E-05
6.284,-1.32E-05
6.288,-1.39E-05
6.292,-1.30E-05
6.296,-8.80E-06
6.3,-3.17E-06
6.304,8.90E-07
6.308,2.96E-06
6.312,5.77E-07
6.316,-1.85E-06
6.32,-4.33E-06
6.324,-6.78E-06
6.328,-9.42E-06
6.332,-1.55E-05
6.336,-2.22E-05
6.34,-2.24E-05
6.344,-1.67E-05
6.348,-1.34E-05
6.352,-1.23E-05
6.356,-1.18E-05
6.36,-1.29E-05
6.364,-1.39E-05
6.368,-1.40E-05
6.372,-9.78E-06
6.376,-2.69E-06
6.38,3.13E-07
6.384,-1.78E-06
6.388,-5.94E-06
6.392,-9.04E-06
6.396,-8.15E-06
6.4,-6.47E-06
6.404,-8.80E-06
6.408,-1.29E-05
6.412,-1.40E-05
6.416,-8.51E-06
6.42,-1.78E-06
6.424,3.13E-07
6.428,1.56E-06
6.432,5.29E-07
6.436,-3.99E-06
6.44,-6.15E-06
6.444,-3.82E-06
6.448,1.49E-06
6.452,8.32E-06
6.456,1.37E-05
6.46,1.88E-05
6.464,2.42E-05
6.468,2.75E-05
6.472,2.94E-05
6.476,3.07E-05
6.48,2.94E-05
6.484,2.93E-05
6.488,3.46E-05
6.492,4.21E-05
6.496,4.81E-05
6.5,5.22E-05
6.504,5.61E-05
6.508,6.77E-05
6.512,9.30E-05
6.516,1.19E-04
6.52,1.33E-04
6.524,1.40E-04
6.528,1.46E-04
6.532,1.49E-04
6.536,1.50E-04
6.54,1.49E-04
6.544,1.48E-04
6.548,1.46E-04
6.552,1.43E-04
6.556,1.37E-04
6.56,1.29E-04
6.564,1.29E-04
6.568,1.35E-04
6.572,1.48E-04
6.576,1.64E-04
6.58,1.77E-04
6.584,1.89E-04
6.588,2.03E-04
6.592,2.18E-04
6.596,2.27E-04
6.6,2.25E-04
6.604,2.16E-04
6.608,2.03E-04
6.612,1.91E-04
6.616,1.85E-04
6.62,1.85E-04
6.624,1.84E-04
6.628,1.78E-04
6.632,1.71E-04
6.636,1.66E-04
6.64,1.62E-04
6.644,1.62E-04
6.648,1.64E-04
6.652,1.66E-04
6.656,1.67E-04
6.66,1.68E-04
6.664,1.72E-04
6.668,1.74E-04
6.672,1.75E-04
6.676,1.75E-04
6.68,1.76E-04
6.684,1.75E-04
6.688,1.77E-04
6.692,1.81E-04
6.696,1.86E-04
6.7,1.90E-04
6.704,1.89E-04
6.708,1.89E-04
6.712,1.88E-04
6.716,1.86E-04
6.72,1.84E-04
6.724,1.82E-04
6.728,1.81E-04
6.732,1.80E-04
6.736,1.82E-04
6.74,1.77E-04
6.744,1.74E-04
6.748,1.74E-04
6.752,1.78E-04
6.756,1.83E-04
6.76,1.84E-04
6.764,1.83E-04
6.768,1.79E-04
6.772,1.78E-04
6.776,1.80E-04
6.78,1.83E-04
6.784,1.81E-04
6.788,1.79E-04
6.792,1.80E-04
6.796,1.80E-04
6.8,1.77E-04
6.804,1.74E-04
6.808,1.72E-04
6.812,1.77E-04
6.816,1.83E-04
6.82,1.85E-04
6.824,1.86E-04
6.828,1.82E-04
6.832,1.77E-04
6.836,1.73E-04
6.84,1.72E-04
6.844,1.74E-04
6.848,1.75E-04
6.852,1.73E-04
6.856,1.75E-04
6.86,1.79E-04
6.864,1.80E-04
6.868,1.81E-04
6.872,1.85E-04
6.876,1.90E-04
6.88,1.95E-04
6.884,2.00E-04
6.888,2.04E-04
6.892,2.05E-04
6.896,2.02E-04
6.9,2.00E-04
6.904,1.97E-04
6.908,1.93E-04
6.912,1.90E-04
6.916,1.89E-04
6.92,1.86E-04
6.924,1.80E-04
6.928,1.75E-04
6.932,1.75E-04
6.936,1.83E-04
6.94,1.91E-04
6.944,1.95E-04
6.948,1.97E-04
6.952,1.99E-04
6.956,1.99E-04
6.96,1.98E-04
6.964,1.95E-04
6.968,1.91E-04
6.972,1.90E-04
6.976,1.89E-04
6.98,1.87E-04
6.984,1.85E-04
6.988,1.77E-04
6.992,1.72E-04
6.996,1.70E-04
7,1.72E-04
7.004,1.78E-04
7.008,1.82E-04
7.012,1.86E-04
7.016,1.94E-04
7.02,2.02E-04
7.024,2.07E-04
7.028,2.09E-04
7.032,2.08E-04
7.036,2.07E-04
7.04,2.05E-04
7.044,2.03E-04
7.048,2.01E-04
7.052,1.99E-04
7.056,1.98E-04
7.06,1.97E-04
7.064,1.92E-04
7.068,1.85E-04
7.072,1.82E-04
7.076,1.88E-04
7.08,1.96E-04
7.084,1.99E-04
7.088,2.01E-04
7.092,2.06E-04
7.096,2.08E-04
7.1,2.07E-04
7.104,2.09E-04
7.108,2.14E-04
7.112,2.17E-04
7.116,2.21E-04
7.12,2.22E-04
7.124,2.20E-04
7.128,2.18E-04
7.132,2.13E-04
7.136,2.08E-04
7.14,2.03E-04
7.144,1.99E-04
7.148,2.01E-04
7.152,2.10E-04
7.156,2.27E-04
7.16,2.50E-04
7.164,2.68E-04
7.168,2.77E-04
7.172,2.81E-04
7.176,2.76E-04
7.18,2.64E-04
7.184,2.53E-04
7.188,2.46E-04
7.192,2.39E-04
7.196,2.33E-04
7.2,2.27E-04
7.204,2.21E-04
7.208,2.17E-04
7.212,2.09E-04
7.216,2.00E-04
7.22,1.91E-04
7.224,1.86E-04
7.228,1.86E-04
7.232,1.89E-04
7.236,1.91E-04
7.24,1.93E-04
7.244,1.93E-04
7.248,1.92E-04
7.252,1.93E-04
7.256,1.93E-04
7.26,1.91E-04
7.264,1.89E-04
7.268,1.88E-04
7.272,1.89E-04
7.276,1.90E-04
7.28,1.89E-04
7.284,1.89E-04
7.288,1.86E-04
7.292,1.80E-04
7.296,1.75E-04
7.3,1.75E-04
7.304,1.78E-04
7.308,1.84E-04
7.312,1.90E-04
7.316,1.92E-04
7.32,1.94E-04
7.324,1.94E-04
7.328,1.93E-04
7.332,1.91E-04
7.336,1.87E-04
7.34,1.85E-04
7.344,1.84E-04
7.348,1.78E-04
7.352,1.72E-04
7.356,1.70E-04
7.36,1.68E-04
7.364,1.68E-04
7.368,1.71E-04
7.372,1.73E-04
7.376,1.76E-04
7.38,1.87E-04
7.384,1.98E-04
7.388,2.03E-04
7.392,2.05E-04
7.396,2.04E-04
7.4,2.02E-04
7.404,2.01E-04
7.408,1.99E-04
7.412,1.96E-04
7.416,1.92E-04
7.42,1.89E-04
7.424,1.85E-04
7.428,1.81E-04
7.432,1.80E-04
7.436,1.79E-04
7.44,1.79E-04
7.444,1.76E-04
7.448,1.72E-04
7.452,1.76E-04
7.456,1.83E-04
7.46,1.86E-04
7.464,1.87E-04
7.468,1.89E-04
7.472,1.90E-04
7.476,1.90E-04
7.48,1.89E-04
7.484,1.88E-04
7.488,1.90E-04
7.492,1.90E-04
7.496,1.90E-04
7.5,1.87E-04
7.504,1.81E-04
7.508,1.79E-04
7.512,1.81E-04
7.516,1.82E-04
7.52,1.85E-04
7.524,1.87E-04
7.528,1.90E-04
7.532,1.94E-04
7.536,1.95E-04
7.54,1.95E-04
7.544,1.98E-04
7.548,1.98E-04
7.552,1.96E-04
7.556,1.93E-04
7.56,1.90E-04
7.564,1.89E-04
7.568,1.89E-04
7.572,1.86E-04
7.576,1.81E-04
7.58,1.77E-04
7.584,1.76E-04
7.588,1.77E-04
7.592,1.79E-04
7.596,1.82E-04
7.6,1.85E-04
7.604,1.84E-04
7.608,1.84E-04
7.612,1.85E-04
7.616,1.83E-04
7.62,1.81E-04
7.624,1.79E-04
7.628,1.76E-04
7.632,1.76E-04
7.636,1.81E-04
7.64,1.84E-04
7.644,1.84E-04
7.648,1.88E-04
7.652,1.95E-04
7.656,2.02E-04
7.66,2.03E-04
7.664,2.00E-04
7.668,1.96E-04
7.672,1.93E-04
7.676,1.92E-04
7.68,1.92E-04
7.684,1.91E-04
7.688,1.90E-04
7.692,1.91E-04
7.696,1.93E-04
7.7,1.97E-04
7.704,1.99E-04
7.708,1.95E-04
7.712,1.91E-04
7.716,1.86E-04
7.72,1.82E-04
7.724,1.80E-04
7.728,1.82E-04
7.732,1.93E-04
7.736,2.09E-04
7.74,2.25E-04
7.744,2.38E-04
7.748,2.50E-04
7.752,2.61E-04
7.756,2.67E-04
7.76,2.65E-04
7.764,2.58E-04
7.768,2.49E-04
7.772,2.41E-04
7.776,2.31E-04
7.78,2.22E-04
7.784,2.12E-04
7.788,2.05E-04
7.792,1.97E-04
7.796,1.89E-04
7.8,1.82E-04
7.804,1.74E-04
7.808,1.67E-04
7.812,1.64E-04
7.816,1.64E-04
7.82,1.62E-04
7.824,1.64E-04
7.828,1.68E-04
7.832,1.72E-04
7.836,1.75E-04
7.84,1.75E-04
7.844,1.74E-04
7.848,1.75E-04
7.852,1.76E-04
7.856,1.76E-04
7.86,1.74E-04
7.864,1.70E-04
7.868,1.66E-04
7.872,1.61E-04
7.876,1.56E-04
7.88,1.53E-04
7.884,1.52E-04
7.888,1.50E-04
7.892,1.49E-04
7.896,1.47E-04
7.9,1.48E-04
7.904,1.54E-04
7.908,1.59E-04
7.912,1.60E-04
7.916,1.57E-04
7.92,1.57E-04
7.924,1.61E-04
7.928,1.64E-04
7.932,1.63E-04
7.936,1.58E-04
7.94,1.54E-04
7.944,1.49E-04
7.948,1.46E-04
7.952,1.49E-04
7.956,1.54E-04
7.96,1.55E-04
7.964,1.53E-04
7.968,1.51E-04
7.972,1.51E-04
7.976,1.48E-04
7.98,1.46E-04
7.984,1.45E-04
7.988,1.44E-04
7.992,1.42E-04
7.996,1.40E-04
8,1.38E-04
8.004,1.32E-04
8.008,1.29E-04
8.012,1.31E-04
8.016,1.35E-04
8.02,1.37E-04
8.024,1.38E-04
8.028,1.37E-04
8.032,1.36E-04
8.036,1.36E-04
8.04,1.37E-04
8.044,1.38E-04
8.048,1.41E-04
8.052,1.44E-04
8.056,1.45E-04
8.06,1.44E-04
8.064,1.41E-04
8.068,1.38E-04
8.072,1.35E-04
8.076,1.34E-04
8.08,1.35E-04
8.084,1.38E-04
8.088,1.42E-04
8.092,1.45E-04
8.096,1.46E-04
8.1,1.44E-04
8.104,1.42E-04
8.108,1.45E-04
8.112,1.47E-04
8.116,1.50E-04
8.12,1.52E-04
8.124,1.53E-04
8.128,1.51E-04
8.132,1.46E-04
8.136,1.40E-04
8.14,1.35E-04
8.144,1.32E-04
8.148,1.31E-04
8.152,1.28E-04
8.156,1.24E-04
8.16,1.20E-04
8.164,1.20E-04
8.168,1.29E-04
8.172,1.40E-04
8.176,1.46E-04
8.18,1.45E-04
8.184,1.42E-04
8.188,1.39E-04
8.192,1.37E-04
8.196,1.37E-04
8.2,1.39E-04
8.204,1.42E-04
8.208,1.42E-04
8.212,1.41E-04
8.216,1.38E-04
8.22,1.36E-04
8.224,1.34E-04
8.228,1.33E-04
8.232,1.32E-04
8.236,1.30E-04
8.24,1.30E-04
8.244,1.30E-04
8.248,1.31E-04
8.252,1.33E-04
8.256,1.36E-04
8.26,1.35E-04
8.264,1.33E-04
8.268,1.30E-04
8.272,1.30E-04
8.276,1.30E-04
8.28,1.32E-04
8.284,1.36E-04
8.288,1.37E-04
8.292,1.31E-04
8.296,1.24E-04
8.3,1.17E-04
8.304,1.13E-04
8.308,1.19E-04
8.312,1.31E-04
8.316,1.46E-04
8.32,1.62E-04
8.324,1.70E-04
8.328,1.75E-04
8.332,1.85E-04
8.336,1.89E-04
8.34,1.87E-04
8.344,1.81E-04
8.348,1.74E-04
8.352,1.67E-04
8.356,1.61E-04
8.36,1.55E-04
8.364,1.50E-04
8.368,1.45E-04
8.372,1.43E-04
8.376,1.40E-04
8.38,1.33E-04
8.384,1.27E-04
8.388,1.21E-04
8.392,1.15E-04
8.396,1.16E-04
8.4,1.21E-04
8.404,1.22E-04
8.408,1.20E-04
8.412,1.20E-04
8.416,1.24E-04
8.42,1.30E-04
8.424,1.33E-04
8.428,1.33E-04
8.432,1.32E-04
8.436,1.30E-04
8.44,1.28E-04
8.444,1.26E-04
8.448,1.23E-04
8.452,1.18E-04
8.456,1.11E-04
8.46,1.07E-04
8.464,1.07E-04
8.468,1.06E-04
8.472,1.03E-04
8.476,1.04E-04
8.48,1.08E-04
8.484,1.11E-04
8.488,1.12E-04
8.492,1.12E-04
8.496,1.08E-04
8.5,1.05E-04
8.504,1.05E-04
8.508,1.07E-04
8.512,1.07E-04
8.516,1.04E-04
8.52,9.98E-05
8.524,9.66E-05
8.528,9.37E-05
8.532,9.40E-05
8.536,9.84E-05
8.54,1.04E-04
8.544,1.08E-04
8.548,1.07E-04
8.552,1.07E-04
8.556,1.08E-04
8.56,1.09E-04
8.564,1.09E-04
8.568,1.09E-04
8.572,1.08E-04
8.576,1.07E-04
8.58,1.06E-04
8.584,1.07E-04
8.588,1.07E-04
8.592,1.06E-04
8.596,1.04E-04
8.6,1.01E-04
8.604,1.00E-04
8.608,1.04E-04
8.612,1.07E-04
8.616,1.09E-04
8.62,1.11E-04
8.624,1.13E-04
8.628,1.13E-04
8.632,1.13E-04
8.636,1.11E-04
8.64,1.10E-04
8.644,1.12E-04
8.648,1.13E-04
8.652,1.12E-04
8.656,1.10E-04
8.66,1.08E-04
8.664,1.04E-04
8.668,1.02E-04
8.672,1.02E-04
8.676,1.00E-04
8.68,9.80E-05
8.684,9.59E-05
8.688,9.65E-05
8.692,1.00E-04
8.696,1.03E-04
8.7,1.06E-04
8.704,1.09E-04
8.708,1.11E-04
8.712,1.12E-04
8.716,1.12E-04
8.72,1.12E-04
8.724,1.12E-04
8.728,1.12E-04
8.732,1.14E-04
8.736,1.17E-04
8.74,1.19E-04
8.744,1.19E-04
8.748,1.20E-04
8.752,1.20E-04
8.756,1.19E-04
8.76,1.17E-04
8.764,1.18E-04
8.768,1.18E-04
8.772,1.20E-04
8.776,1.20E-04
8.78,1.20E-04
8.784,1.19E-04
8.788,1.18E-04
8.792,1.14E-04
8.796,1.10E-04
8.8,1.10E-04
8.804,1.16E-04
8.808,1.22E-04
8.812,1.24E-04
8.816,1.21E-04
8.82,1.16E-04
8.824,1.16E-04
8.828,1.19E-04
8.832,1.21E-04
8.836,1.22E-04
8.84,1.22E-04
8.844,1.21E-04
8.848,1.17E-04
8.852,1.11E-04
8.856,1.08E-04
8.86,1.10E-04
8.864,1.16E-04
8.868,1.20E-04
8.872,1.21E-04
8.876,1.20E-04
8.88,1.21E-04
8.884,1.29E-04
8.888,1.40E-04
8.892,1.58E-04
8.896,1.76E-04
8.9,1.87E-04
8.904,1.93E-04
8.908,1.93E-04
8.912,1.88E-04
8.916,1.83E-04
8.92,1.70E-04
8.924,1.57E-04
8.928,1.48E-04
8.932,1.44E-04
8.936,1.44E-04
8.94,1.44E-04
8.944,1.42E-04
8.948,1.41E-04
8.952,1.46E-04
8.956,1.56E-04
8.96,1.62E-04
8.964,1.60E-04
8.968,1.53E-04
8.972,1.45E-04
8.976,1.43E-04
8.98,1.48E-04
8.984,1.50E-04
8.988,1.49E-04
8.992,1.47E-04
8.996,1.44E-04
9,1.42E-04
9.004,1.43E-04
9.008,1.42E-04
9.012,1.38E-04
9.016,1.33E-04
9.02,1.26E-04
9.024,1.21E-04
9.028,1.19E-04
9.032,1.21E-04
9.036,1.26E-04
9.04,1.28E-04
9.044,1.30E-04
9.048,1.32E-04
9.052,1.32E-04
9.056,1.30E-04
9.06,1.27E-04
9.064,1.25E-04
9.068,1.24E-04
9.072,1.24E-04
9.076,1.24E-04
9.08,1.22E-04
9.084,1.18E-04
9.088,1.19E-04
9.092,1.21E-04
9.096,1.23E-04
9.1,1.23E-04
9.104,1.22E-04
9.108,1.21E-04
9.112,1.20E-04
9.116,1.20E-04
9.12,1.22E-04
9.124,1.26E-04
9.128,1.30E-04
9.132,1.31E-04
9.136,1.31E-04
9.14,1.32E-04
9.144,1.28E-04
9.148,1.26E-04
9.152,1.28E-04
9.156,1.29E-04
9.16,1.27E-04
9.164,1.23E-04
9.168,1.21E-04
9.172,1.25E-04
9.176,1.32E-04
9.18,1.36E-04
9.184,1.38E-04
9.188,1.38E-04
9.192,1.37E-04
9.196,1.36E-04
9.2,1.36E-04
9.204,1.35E-04
9.208,1.34E-04
9.212,1.33E-04
9.216,1.33E-04
9.22,1.35E-04
9.224,1.36E-04
9.228,1.35E-04
9.232,1.34E-04
9.236,1.34E-04
9.24,1.31E-04
9.244,1.27E-04
9.248,1.28E-04
9.252,1.32E-04
9.256,1.31E-04
9.26,1.32E-04
9.264,1.36E-04
9.268,1.40E-04
9.272,1.41E-04
9.276,1.40E-04
9.28,1.38E-04
9.284,1.41E-04
9.288,1.45E-04
9.292,1.47E-04
9.296,1.49E-04
9.3,1.48E-04
9.304,1.44E-04
9.308,1.39E-04
9.312,1.37E-04
9.316,1.37E-04
9.32,1.42E-04
9.324,1.43E-04
9.328,1.41E-04
9.332,1.39E-04
9.336,1.38E-04
9.34,1.37E-04
9.344,1.34E-04
9.348,1.34E-04
9.352,1.36E-04
9.356,1.41E-04
9.36,1.46E-04
9.364,1.52E-04
9.368,1.53E-04
9.372,1.51E-04
9.376,1.50E-04
9.38,1.48E-04
9.384,1.45E-04
9.388,1.44E-04
9.392,1.45E-04
9.396,1.46E-04
9.4,1.48E-04
9.404,1.49E-04
9.408,1.50E-04
9.412,1.50E-04
9.416,1.50E-04
9.42,1.50E-04
9.424,1.47E-04
9.428,1.44E-04
9.432,1.44E-04
9.436,1.46E-04
9.44,1.53E-04
9.444,1.58E-04
9.448,1.60E-04
9.452,1.60E-04
9.456,1.61E-04
9.46,1.68E-04
9.464,1.81E-04
9.468,1.96E-04
9.472,2.13E-04
9.476,2.25E-04
9.48,2.29E-04
9.484,2.30E-04
9.488,2.25E-04
9.492,2.15E-04
9.496,2.03E-04
9.5,1.95E-04
9.504,1.89E-04
9.508,1.89E-04
9.512,1.90E-04
9.516,1.83E-04
9.52,1.77E-04
9.524,1.83E-04
9.528,1.92E-04
9.532,1.97E-04
9.536,1.97E-04
9.54,1.94E-04
9.544,1.90E-04
9.548,1.87E-04
9.552,1.88E-04
9.556,1.87E-04
9.56,1.86E-04
9.564,1.87E-04
9.568,1.86E-04
9.572,1.86E-04
9.576,1.91E-04
9.58,1.96E-04
9.584,2.00E-04
9.588,2.00E-04
9.592,1.98E-04
9.596,1.98E-04
9.6,1.98E-04
9.604,1.97E-04
9.608,1.95E-04
9.612,1.95E-04
9.616,1.92E-04
9.62,1.88E-04
9.624,1.83E-04
9.628,1.79E-04
9.632,1.77E-04
9.636,1.76E-04
9.64,1.68E-04
9.644,1.62E-04
9.648,1.60E-04
9.652,1.66E-04
9.656,1.75E-04
9.66,1.78E-04
9.664,1.77E-04
9.668,1.77E-04
9.672,1.77E-04
9.676,1.77E-04
9.68,1.77E-04
9.684,1.75E-04
9.688,1.72E-04
9.692,1.70E-04
9.696,1.66E-04
9.7,1.64E-04
9.704,1.61E-04
9.708,1.61E-04
9.712,1.63E-04
9.716,1.63E-04
9.72,1.58E-04
9.724,1.56E-04
9.728,1.58E-04
9.732,1.66E-04
9.736,1.72E-04
9.74,1.71E-04
9.744,1.70E-04
9.748,1.75E-04
9.752,1.79E-04
9.756,1.82E-04
9.76,1.86E-04
9.764,1.90E-04
9.768,1.92E-04
9.772,1.89E-04
9.776,1.84E-04
9.78,1.79E-04
9.784,1.75E-04
9.788,1.74E-04
9.792,1.73E-04
9.796,1.67E-04
9.8,1.65E-04
9.804,1.68E-04
9.808,1.75E-04
9.812,1.83E-04
9.816,1.88E-04
9.82,1.86E-04
9.824,1.83E-04
9.828,1.81E-04
9.832,1.80E-04
9.836,1.83E-04
9.84,1.85E-04
9.844,1.86E-04
9.848,1.85E-04
9.852,1.81E-04
9.856,1.79E-04
9.86,1.81E-04
9.864,1.85E-04
9.868,1.85E-04
9.872,1.81E-04
9.876,1.79E-04
9.88,1.76E-04
9.884,1.72E-04
9.888,1.74E-04
9.892,1.85E-04
9.896,1.93E-04
9.9,1.96E-04
9.904,1.97E-04
9.908,1.95E-04
9.912,1.89E-04
9.916,1.82E-04
9.92,1.78E-04
9.924,1.81E-04
9.928,1.82E-04
9.932,1.82E-04
9.936,1.90E-04
9.94,1.97E-04
9.944,1.96E-04
9.948,1.90E-04
9.952,1.87E-04
9.956,1.91E-04
9.96,2.00E-04
9.964,2.05E-04
9.968,2.04E-04
9.972,2.02E-04
9.976,1.99E-04
9.98,1.97E-04
9.984,1.96E-04
9.988,1.94E-04
9.992,1.88E-04
9.996,1.82E-04
10,1.80E-04
10.004,1.84E-04
10.008,1.85E-04
10.012,1.77E-04
10.016,1.70E-04
10.02,1.71E-04
10.024,1.78E-04
10.028,1.86E-04
10.032,1.94E-04
10.036,2.05E-04
10.04,2.20E-04
10.044,2.42E-04
10.048,2.62E-04
10.052,2.74E-04
10.056,2.77E-04
10.06,2.73E-04
10.064,2.61E-04
10.068,2.47E-04
10.072,2.34E-04
10.076,2.20E-04
10.08,2.09E-04
10.084,2.00E-04
10.088,1.89E-04
10.092,1.81E-04
10.096,1.85E-04
10.1,1.98E-04
10.104,2.09E-04
10.108,2.17E-04
10.112,2.18E-04
10.116,2.11E-04
10.12,2.03E-04
10.124,1.99E-04
10.128,2.02E-04
10.132,2.02E-04
10.136,1.94E-04
10.14,1.87E-04
10.144,1.84E-04
10.148,1.88E-04
10.152,1.98E-04
10.156,2.04E-04
10.16,2.05E-04
10.164,2.08E-04
10.168,2.12E-04
10.172,2.15E-04
10.176,2.14E-04
10.18,2.10E-04
10.184,2.06E-04
10.188,2.02E-04
10.192,1.97E-04
10.196,1.94E-04
10.2,1.90E-04
10.204,1.83E-04
10.208,1.76E-04
10.212,1.72E-04
10.216,1.73E-04
10.22,1.79E-04
10.224,1.86E-04
10.228,1.92E-04
10.232,1.92E-04
10.236,1.88E-04
10.24,1.80E-04
10.244,1.76E-04
10.248,1.80E-04
10.252,1.86E-04
10.256,1.82E-04
10.26,1.70E-04
10.264,1.68E-04
10.268,1.81E-04
10.272,1.93E-04
10.276,1.94E-04
10.28,1.89E-04
10.284,1.91E-04
10.288,1.98E-04
10.292,2.03E-04
10.296,2.04E-04
10.3,2.01E-04
10.304,1.95E-04
10.308,1.87E-04
10.312,1.81E-04
10.316,1.79E-04
10.32,1.88E-04
10.324,1.97E-04
10.328,2.00E-04
10.332,2.01E-04
10.336,1.95E-04
10.34,1.87E-04
10.344,1.86E-04
10.348,1.85E-04
10.352,1.81E-04
10.356,1.75E-04
10.36,1.73E-04
10.364,1.72E-04
10.368,1.64E-04
10.372,1.51E-04
10.376,1.49E-04
10.38,1.59E-04
10.384,1.67E-04
10.388,1.64E-04
10.392,1.60E-04
10.396,1.58E-04
10.4,1.56E-04
10.404,1.54E-04
10.408,1.51E-04
10.412,1.42E-04
10.416,1.30E-04
10.42,1.18E-04
10.424,1.13E-04
10.428,1.13E-04
10.432,1.12E-04
10.436,1.05E-04
10.44,1.06E-04
10.444,1.17E-04
10.448,1.28E-04
10.452,1.31E-04
10.456,1.28E-04
10.46,1.19E-04
10.464,1.03E-04
10.468,8.26E-05
10.472,7.39E-05
10.476,8.39E-05
10.48,9.48E-05
10.484,9.61E-05
10.488,8.87E-05
10.492,8.21E-05
10.496,8.36E-05
10.5,8.78E-05
10.504,9.21E-05
10.508,8.67E-05
10.512,6.99E-05
10.516,5.80E-05
10.52,6.01E-05
10.524,6.92E-05
10.528,7.87E-05
10.532,8.79E-05
10.536,8.63E-05
10.54,7.14E-05
10.544,5.89E-05
10.548,6.25E-05
10.552,7.45E-05
10.556,8.55E-05
10.56,8.46E-05
10.564,7.67E-05
10.568,6.96E-05
10.572,7.18E-05
10.576,8.04E-05
10.58,7.91E-05
10.584,5.77E-05
10.588,4.47E-05
10.592,5.71E-05
10.596,7.44E-05
10.6,8.05E-05
10.604,6.38E-05
10.608,5.39E-05
10.612,7.38E-05
10.616,1.07E-04
10.62,1.35E-04
10.624,1.48E-04
10.628,1.49E-04
10.632,1.49E-04
10.636,1.44E-04
10.64,1.38E-04
10.644,1.30E-04
10.648,1.17E-04
10.652,1.10E-04
10.656,1.06E-04
10.66,9.81E-05
10.664,9.25E-05
10.668,8.74E-05
10.672,8.84E-05
10.676,9.69E-05
10.68,9.62E-05
10.684,8.56E-05
10.688,7.08E-05
10.692,7.12E-05
10.696,9.02E-05
10.7,1.08E-04
10.704,1.14E-04
10.708,1.12E-04
10.712,1.04E-04
10.716,9.77E-05
10.72,9.61E-05
10.724,9.24E-05
10.728,9.26E-05
10.732,9.81E-05
10.736,1.03E-04
10.74,1.10E-04
10.744,1.15E-04
10.748,1.19E-04
10.752,1.25E-04
10.756,1.29E-04
10.76,1.24E-04
10.764,1.17E-04
10.768,1.12E-04
10.772,1.15E-04
10.776,1.16E-04
10.78,1.16E-04
10.784,9.97E-05
10.788,8.29E-05
10.792,8.99E-05
10.796,1.04E-04
10.8,1.05E-04
10.804,9.25E-05
10.808,9.16E-05
10.812,1.12E-04
10.816,1.28E-04
10.82,1.28E-04
10.824,1.22E-04
10.828,1.22E-04
10.832,1.23E-04
10.836,1.28E-04
10.84,1.31E-04
10.844,1.17E-04
10.848,9.63E-05
10.852,9.90E-05
10.856,1.13E-04
10.86,1.15E-04
10.864,1.02E-04
10.868,8.78E-05
10.872,9.33E-05
10.876,1.12E-04
10.88,1.17E-04
10.884,1.06E-04
10.888,9.81E-05
10.892,1.05E-04
10.896,1.13E-04
10.9,1.18E-04
10.904,1.13E-04
10.908,1.03E-04
10.912,1.05E-04
10.916,1.12E-04
10.92,1.18E-04
10.924,1.12E-04
10.928,1.03E-04
10.932,1.04E-04
10.936,1.19E-04
10.94,1.31E-04
10.944,1.19E-04
10.948,1.08E-04
10.952,1.22E-04
10.956,1.44E-04
10.96,1.55E-04
10.964,1.54E-04
10.968,1.49E-04
10.972,1.39E-04
10.976,1.36E-04
10.98,1.40E-04
10.984,1.49E-04
10.988,1.57E-04
10.992,1.51E-04
10.996,1.50E-04
11,1.58E-04
11.004,1.69E-04
11.008,1.72E-04
11.012,1.59E-04
11.016,1.54E-04
11.02,1.59E-04
11.024,1.53E-04
11.028,1.50E-04
11.032,1.57E-04
11.036,1.66E-04
11.04,1.71E-04
11.044,1.62E-04
11.048,1.58E-04
11.052,1.70E-04
11.056,1.78E-04
11.06,1.80E-04
11.064,1.73E-04
11.068,1.61E-04
11.072,1.64E-04
11.076,1.78E-04
11.08,1.83E-04
11.084,1.78E-04
11.088,1.64E-04
11.092,1.58E-04
11.096,1.70E-04
11.1,1.85E-04
11.104,1.86E-04
11.108,1.76E-04
11.112,1.64E-04
11.116,1.65E-04
11.12,1.76E-04
11.124,1.93E-04
11.128,1.99E-04
11.132,1.88E-04
11.136,1.86E-04
11.14,1.92E-04
11.144,2.00E-04
11.148,2.07E-04
11.152,2.01E-04
11.156,1.88E-04
11.16,1.84E-04
11.164,1.90E-04
11.168,1.98E-04
11.172,1.91E-04
11.176,1.71E-04
11.18,1.65E-04
11.184,1.81E-04
11.188,1.98E-04
11.192,2.13E-04
11.196,2.32E-04
11.2,2.42E-04
11.204,2.42E-04
11.208,2.44E-04
11.212,2.48E-04
11.216,2.44E-04
11.22,2.31E-04
11.224,2.11E-04
11.228,1.92E-04
11.232,1.97E-04
11.236,2.08E-04
11.24,2.12E-04
11.244,2.26E-04
11.248,2.29E-04
11.252,2.16E-04
11.256,2.03E-04
11.26,2.00E-04
11.264,1.99E-04
11.268,1.95E-04
11.272,1.95E-04
11.276,1.97E-04
11.28,1.88E-04
11.284,1.79E-04
11.288,1.75E-04
11.292,1.76E-04
11.296,1.93E-04
11.3,2.03E-04
11.304,2.02E-04
11.308,1.90E-04
11.312,1.80E-04
11.316,1.86E-04
11.32,2.02E-04
11.324,2.10E-04
11.328,2.10E-04
11.332,2.04E-04
11.336,2.02E-04
11.34,2.08E-04
11.344,2.09E-04
11.348,2.01E-04
11.352,1.91E-04
11.356,1.87E-04
11.36,1.78E-04
11.364,1.65E-04
11.368,1.62E-04
11.372,1.70E-04
11.376,1.76E-04
11.38,1.75E-04
11.384,1.71E-04
11.388,1.65E-04
11.392,1.58E-04
11.396,1.61E-04
11.4,1.69E-04
11.404,1.65E-04
11.408,1.60E-04
11.412,1.64E-04
11.416,1.64E-04
11.42,1.65E-04
11.424,1.67E-04
11.428,1.65E-04
11.432,1.62E-04
11.436,1.53E-04
11.44,1.46E-04
11.444,1.51E-04
11.448,1.59E-04
11.452,1.58E-04
11.456,1.49E-04
11.46,1.48E-04
11.464,1.58E-04
11.468,1.63E-04
11.472,1.58E-04
11.476,1.53E-04
11.48,1.48E-04
11.484,1.48E-04
11.488,1.57E-04
11.492,1.65E-04
11.496,1.64E-04
11.5,1.64E-04
11.504,1.61E-04
11.508,1.54E-04
11.512,1.49E-04
11.516,1.44E-04
11.52,1.42E-04
11.524,1.44E-04
11.528,1.47E-04
11.532,1.41E-04
11.536,1.28E-04
11.54,1.17E-04
11.544,1.25E-04
11.548,1.39E-04
11.552,1.44E-04
11.556,1.42E-04
11.56,1.40E-04
11.564,1.38E-04
11.568,1.35E-04
11.572,1.31E-04
11.576,1.25E-04
11.58,1.25E-04
11.584,1.28E-04
11.588,1.27E-04
11.592,1.19E-04
11.596,1.18E-04
11.6,1.30E-04
11.604,1.32E-04
11.608,1.17E-04
11.612,1.09E-04
11.616,1.27E-04
11.62,1.49E-04
11.624,1.54E-04
11.628,1.51E-04
11.632,1.46E-04
11.636,1.39E-04
11.64,1.29E-04
11.644,1.25E-04
11.648,1.24E-04
11.652,1.21E-04
11.656,1.16E-04
11.66,1.03E-04
11.664,9.41E-05
11.668,9.86E-05
11.672,1.05E-04
11.676,1.12E-04
11.68,1.15E-04
11.684,1.11E-04
11.688,1.11E-04
11.692,1.17E-04
11.696,1.21E-04
11.7,1.19E-04
11.704,1.16E-04
11.708,1.13E-04
11.712,1.13E-04
11.716,1.13E-04
11.72,1.04E-04
11.724,9.45E-05
11.728,1.01E-04
11.732,1.17E-04
11.736,1.32E-04
11.74,1.40E-04
11.744,1.40E-04
11.748,1.36E-04
11.752,1.27E-04
11.756,1.18E-04
11.76,1.09E-04
11.764,1.07E-04
11.768,1.23E-04
11.772,1.43E-04
11.776,1.56E-04
11.78,1.57E-04
11.784,1.58E-04
11.788,1.62E-04
11.792,1.70E-04
11.796,1.75E-04
11.8,1.75E-04
11.804,1.70E-04
11.808,1.59E-04
11.812,1.47E-04
11.816,1.41E-04
11.82,1.38E-04
11.824,1.35E-04
11.828,1.30E-04
11.832,1.23E-04
11.836,1.13E-04
11.84,1.02E-04
11.844,1.04E-04
11.848,1.14E-04
11.852,1.21E-04
11.856,1.29E-04
11.86,1.35E-04
11.864,1.36E-04
11.868,1.29E-04
11.872,1.24E-04
11.876,1.35E-04
11.88,1.44E-04
11.884,1.45E-04
11.888,1.41E-04
11.892,1.30E-04
11.896,1.24E-04
11.9,1.21E-04
11.904,1.17E-04
11.908,1.10E-04
11.912,9.67E-05
11.916,8.41E-05
11.92,8.24E-05
11.924,9.29E-05
11.928,1.02E-04
11.932,1.00E-04
11.936,9.13E-05
11.94,8.34E-05
11.944,7.56E-05
11.948,6.79E-05
11.952,7.83E-05
11.956,9.83E-05
11.96,1.05E-04
11.964,1.05E-04
11.968,1.07E-04
11.972,1.08E-04
11.976,1.07E-04
11.98,1.04E-04
11.984,1.01E-04
11.988,9.98E-05
11.992,9.39E-05
11.996,8.24E-05
12,7.35E-05
12.004,8.21E-05
12.008,9.97E-05
12.012,1.19E-04
12.016,1.32E-04
12.02,1.28E-04
12.024,1.10E-04
12.028,1.02E-04
12.032,1.11E-04
12.036,1.21E-04
12.04,1.24E-04
12.044,1.21E-04
12.048,1.14E-04
12.052,1.07E-04
12.056,9.70E-05
12.06,8.91E-05
12.064,8.28E-05
12.068,8.38E-05
12.072,8.94E-05
12.076,8.51E-05
12.08,7.74E-05
12.084,7.94E-05
12.088,8.03E-05
12.092,8.03E-05
12.096,8.85E-05
12.1,9.77E-05
12.104,1.00E-04
12.108,9.90E-05
12.112,9.36E-05
12.116,8.53E-05
12.12,7.89E-05
12.124,7.49E-05
12.128,7.19E-05
12.132,6.56E-05
12.136,5.97E-05
12.14,6.18E-05
12.144,6.61E-05
12.148,6.51E-05
12.152,6.17E-05
12.156,6.35E-05
12.16,6.92E-05
12.164,7.20E-05
12.168,6.84E-05
12.172,7.31E-05
12.176,8.33E-05
12.18,8.77E-05
12.184,8.69E-05
12.188,8.32E-05
12.192,7.80E-05
12.196,7.33E-05
12.2,6.80E-05
12.204,6.05E-05
12.208,5.15E-05
12.212,4.71E-05
12.216,4.34E-05
12.22,4.29E-05
12.224,4.47E-05
12.228,5.15E-05
12.232,6.16E-05
12.236,6.49E-05
12.24,5.72E-05
12.244,4.12E-05
12.248,3.01E-05
12.252,3.83E-05
12.256,4.80E-05
12.26,4.93E-05
12.264,4.57E-05
12.268,3.77E-05
12.272,3.06E-05
12.276,2.46E-05
12.28,1.92E-05
12.284,1.68E-05
12.288,1.71E-05
12.292,1.44E-05
12.296,9.14E-06
12.3,4.11E-06
12.304,-3.73E-06
12.308,-3.46E-06
12.312,6.18E-06
12.316,1.69E-05
12.32,2.33E-05
12.324,2.41E-05
12.328,1.94E-05
12.332,9.76E-06
12.336,2.16E-06
12.34,1.23E-06
12.344,4.06E-06
12.348,7.43E-06
12.352,1.42E-05
12.356,2.17E-05
12.36,3.19E-05
12.364,4.58E-05
12.368,5.51E-05
12.372,5.62E-05
12.376,5.35E-05
12.38,4.75E-05
12.384,4.17E-05
12.388,3.83E-05
12.392,2.88E-05
12.396,1.84E-05
12.4,1.61E-05
12.404,1.67E-05
12.408,1.25E-05
12.412,6.39E-06
12.416,1.54E-06
12.42,-1.47E-06
12.424,-7.12E-06
12.428,-1.39E-05
12.432,-2.31E-05
12.436,-3.45E-05
12.44,-3.63E-05
12.444,-2.85E-05
12.448,-2.73E-05
12.452,-4.17E-05
12.456,-5.57E-05
12.46,-5.29E-05
12.464,-3.97E-05
12.468,-3.65E-05
12.472,-4.71E-05
12.476,-5.77E-05
12.48,-5.71E-05
12.484,-4.65E-05
12.488,-3.80E-05
12.492,-3.96E-05
12.496,-4.56E-05
12.5,-5.14E-05
12.504,-5.58E-05
12.508,-6.04E-05
12.512,-6.91E-05
12.516,-7.36E-05
12.52,-6.51E-05
12.524,-5.72E-05
12.528,-5.77E-05
12.532,-6.17E-05
12.536,-6.51E-05
12.54,-6.33E-05
12.544,-5.80E-05
12.548,-5.25E-05
12.552,-5.71E-05
12.556,-6.67E-05
12.56,-6.16E-05
12.564,-5.09E-05
12.568,-5.02E-05
12.572,-5.25E-05
12.576,-5.24E-05
12.58,-5.59E-05
12.584,-6.24E-05
12.588,-7.24E-05
12.592,-7.86E-05
12.596,-8.00E-05
12.6,-8.41E-05
12.604,-9.22E-05
12.608,-9.35E-05
12.612,-8.61E-05
12.616,-8.13E-05
12.62,-8.38E-05
12.624,-8.13E-05
12.628,-7.45E-05
12.632,-7.19E-05
12.636,-7.45E-05
12.64,-8.06E-05
12.644,-8.36E-05
12.648,-8.10E-05
12.652,-7.99E-05
12.656,-8.17E-05
12.66,-9.14E-05
12.664,-1.03E-04
12.668,-9.57E-05
12.672,-8.54E-05
12.676,-8.76E-05
12.68,-9.49E-05
12.684,-8.94E-05
12.688,-8.18E-05
12.692,-8.17E-05
12.696,-7.70E-05
12.7,-6.70E-05
12.704,-6.10E-05
12.708,-6.20E-05
12.712,-6.44E-05
12.716,-6.87E-05
12.72,-7.35E-05
12.724,-7.59E-05
12.728,-7.68E-05
12.732,-7.68E-05
12.736,-7.61E-05
12.74,-7.93E-05
12.744,-8.14E-05
12.748,-8.37E-05
12.752,-8.74E-05
12.756,-8.71E-05
12.76,-8.69E-05
12.764,-8.11E-05
12.768,-6.95E-05
12.772,-7.24E-05
12.776,-8.76E-05
12.78,-9.16E-05
12.784,-8.72E-05
12.788,-7.99E-05
12.792,-7.52E-05
12.796,-7.55E-05
12.8,-7.83E-05
12.804,-8.15E-05
12.808,-8.62E-05
12.812,-9.01E-05
12.816,-9.22E-05
12.82,-9.37E-05
12.824,-9.47E-05
12.828,-9.63E-05
12.832,-1.00E-04
12.836,-1.04E-04
12.84,-9.99E-05
12.844,-7.82E-05
12.848,-4.61E-05
12.852,-2.16E-05
12.856,-1.50E-05
12.86,-2.16E-05
12.864,-2.51E-05
12.868,-2.38E-05
12.872,-2.44E-05
12.876,-2.95E-05
12.88,-3.73E-05
12.884,-5.06E-05
12.888,-5.89E-05
12.892,-5.37E-05
12.896,-4.76E-05
12.9,-4.69E-05
12.904,-5.00E-05
12.908,-5.71E-05
12.912,-6.09E-05
12.916,-5.54E-05
12.92,-5.03E-05
12.924,-5.29E-05
12.928,-6.08E-05
12.932,-7.10E-05
12.936,-7.37E-05
12.94,-7.14E-05
12.944,-6.52E-05
12.948,-5.21E-05
12.952,-3.57E-05
12.956,-1.86E-05
12.96,-3.39E-06
12.964,5.99E-06
12.968,1.08E-05
12.972,1.17E-05
12.976,5.24E-06
12.98,-3.01E-06
12.984,-5.89E-06
12.988,-9.76E-06
12.992,-1.93E-05
12.996,-3.40E-05
13,-3.72E-05
13.004,-3.06E-05
13.008,-2.47E-05
13.012,-2.14E-05
13.016,-2.04E-05
13.02,-2.37E-05
13.024,-2.74E-05
13.028,-2.92E-05
13.032,-2.88E-05
13.036,-2.94E-05
13.04,-3.16E-05
13.044,-3.43E-05
13.048,-3.62E-05
13.052,-3.80E-05
13.056,-4.00E-05
13.06,-4.35E-05
13.064,-4.49E-05
13.068,-4.16E-05
13.072,-3.39E-05
13.076,-2.55E-05
13.08,-2.28E-05
13.084,-2.39E-05
13.088,-2.70E-05
13.092,-3.20E-05
13.096,-3.63E-05
13.1,-3.77E-05
13.104,-3.65E-05
13.108,-3.62E-05
13.112,-3.86E-05
13.116,-4.16E-05
13.12,-4.14E-05
13.124,-3.85E-05
13.128,-4.37E-05
13.132,-5.57E-05
13.136,-5.63E-05
13.14,-4.34E-05
13.144,-3.07E-05
13.148,-2.11E-05
13.152,-1.52E-05
13.156,-9.40E-06
13.16,-4.93E-06
13.164,-1.97E-06
13.168,-2.45E-06
13.172,-5.02E-06
13.176,-3.53E-06
13.18,3.51E-06
13.184,1.47E-05
13.188,2.72E-05
13.192,3.40E-05
13.196,3.30E-05
13.2,3.06E-05
13.204,2.88E-05
13.208,2.52E-05
13.212,1.82E-05
13.216,1.62E-05
13.22,1.50E-05
13.224,1.37E-05
13.228,1.43E-05
13.232,1.36E-05
13.236,9.11E-06
13.24,5.60E-06
13.244,4.88E-06
13.248,5.36E-06
13.252,6.20E-06
13.256,5.39E-06
13.26,3.32E-06
13.264,9.38E-07
13.268,-4.90E-06
13.272,-1.32E-05
13.276,-1.03E-05
13.28,3.51E-06
13.284,1.54E-05
13.288,1.96E-05
13.292,1.96E-05
13.296,1.70E-05
13.3,1.57E-05
13.304,1.68E-05
13.308,1.56E-05
13.312,1.52E-05
13.316,1.62E-05
13.32,1.59E-05
13.324,1.51E-05
13.328,1.82E-05
13.332,2.02E-05
13.336,1.52E-05
13.34,1.24E-05
13.344,2.59E-05
13.348,3.76E-05
13.352,4.61E-05
13.356,4.59E-05
13.36,3.78E-05
13.364,3.52E-05
13.368,3.57E-05
13.372,4.04E-05
13.376,4.52E-05
13.38,4.67E-05
13.384,4.71E-05
13.388,4.88E-05
13.392,4.94E-05
13.396,4.81E-05
13.4,4.59E-05
13.404,4.45E-05
13.408,4.53E-05
13.412,4.01E-05
13.416,4.04E-05
13.42,5.32E-05
13.424,6.99E-05
13.428,8.09E-05
13.432,8.80E-05
13.436,9.30E-05
13.44,9.60E-05
13.444,9.56E-05
13.448,9.45E-05
13.452,9.65E-05
13.456,9.87E-05
13.46,9.77E-05
13.464,9.83E-05
13.468,8.68E-05
13.472,7.09E-05
13.476,8.21E-05
13.48,1.10E-04
13.484,1.29E-04
13.488,1.36E-04
13.492,1.35E-04
13.496,1.30E-04
13.5,1.25E-04
13.504,1.22E-04
13.508,1.22E-04
13.512,1.22E-04
13.516,1.19E-04
13.52,1.16E-04
13.524,1.12E-04
13.528,1.06E-04
13.532,1.01E-04
13.536,9.43E-05
13.54,8.04E-05
13.544,6.27E-05
13.548,6.18E-05
13.552,8.65E-05
13.556,1.16E-04
13.56,1.42E-04
13.564,1.63E-04
13.568,1.75E-04
13.572,1.77E-04
13.576,1.76E-04
13.58,1.72E-04
13.584,1.65E-04
13.588,1.59E-04
13.592,1.52E-04
13.596,1.47E-04
13.6,1.42E-04
13.604,1.35E-04
13.608,1.29E-04
13.612,1.26E-04
13.616,1.18E-04
13.62,1.04E-04
13.624,9.77E-05
13.628,1.02E-04
13.632,1.10E-04
13.636,1.15E-04
13.64,1.15E-04
13.644,1.13E-04
13.648,1.09E-04
13.652,1.11E-04
13.656,1.17E-04
13.66,1.20E-04
13.664,1.21E-04
13.668,1.17E-04
13.672,1.12E-04
13.676,1.12E-04
13.68,1.10E-04
13.684,1.05E-04
13.688,1.00E-04
13.692,9.82E-05
13.696,9.55E-05
13.7,9.07E-05
13.704,8.24E-05
13.708,7.94E-05
13.712,8.49E-05
13.716,9.28E-05
13.72,9.75E-05
13.724,1.01E-04
13.728,1.07E-04
13.732,1.18E-04
13.736,1.33E-04
13.74,1.48E-04
13.744,1.59E-04
13.748,1.63E-04
13.752,1.63E-04
13.756,1.60E-04
13.76,1.54E-04
13.764,1.50E-04
13.768,1.50E-04
13.772,1.40E-04
13.776,1.27E-04
13.78,1.28E-04
13.784,1.38E-04
13.788,1.45E-04
13.792,1.48E-04
13.796,1.51E-04
13.8,1.52E-04
13.804,1.48E-04
13.808,1.43E-04
13.812,1.44E-04
13.816,1.43E-04
13.82,1.37E-04
13.824,1.29E-04
13.828,1.23E-04
13.832,1.18E-04
13.836,1.15E-04
13.84,1.09E-04
13.844,9.54E-05
13.848,8.83E-05
13.852,9.46E-05
13.856,1.01E-04
13.86,1.07E-04
13.864,1.13E-04
13.868,1.12E-04
13.872,1.10E-04
13.876,1.12E-04
13.88,1.16E-04
13.884,1.17E-04
13.888,1.16E-04
13.892,1.17E-04
13.896,1.17E-04
13.9,1.16E-04
13.904,1.16E-04
13.908,1.11E-04
13.912,1.01E-04
13.916,9.79E-05
13.92,1.09E-04
13.924,1.21E-04
13.928,1.28E-04
13.932,1.25E-04
13.936,1.22E-04
13.94,1.17E-04
13.944,1.13E-04
13.948,1.12E-04
13.952,1.12E-04
13.956,1.13E-04
13.96,1.11E-04
13.964,1.09E-04
13.968,1.07E-04
13.972,1.09E-04
13.976,1.10E-04
13.98,1.02E-04
13.984,9.85E-05
13.988,1.10E-04
13.992,1.21E-04
13.996,1.24E-04
14,1.23E-04
14.004,1.22E-04
14.008,1.22E-04
14.012,1.23E-04
14.016,1.26E-04
14.02,1.23E-04
14.024,1.14E-04
14.028,1.09E-04
14.032,1.14E-04
14.036,1.24E-04
14.04,1.29E-04
14.044,1.26E-04
14.048,1.20E-04
14.052,1.16E-04
14.056,1.17E-04
14.06,1.21E-04
14.064,1.20E-04
14.068,1.14E-04
14.072,1.06E-04
14.076,1.00E-04
14.08,1.02E-04
14.084,1.06E-04
14.088,1.07E-04
14.092,1.05E-04
14.096,1.01E-04
14.1,9.67E-05
14.104,9.77E-05
14.108,1.01E-04
14.112,9.77E-05
14.116,9.08E-05
14.12,9.05E-05
14.124,9.97E-05
14.128,1.12E-04
14.132,1.21E-04
14.136,1.24E-04
14.14,1.19E-04
14.144,1.11E-04
14.148,1.01E-04
14.152,1.01E-04
14.156,1.19E-04
14.16,1.43E-04
14.164,1.65E-04
14.168,1.82E-04
14.172,1.86E-04
14.176,1.81E-04
14.18,1.80E-04
14.184,1.89E-04
14.188,1.94E-04
14.192,1.88E-04
14.196,1.79E-04
14.2,1.69E-04
14.204,1.57E-04
14.208,1.48E-04
14.212,1.39E-04
14.216,1.30E-04
14.22,1.21E-04
14.224,1.12E-04
14.228,1.11E-04
14.232,1.13E-04
14.236,1.06E-04
14.24,9.13E-05
14.244,8.79E-05
14.248,1.01E-04
14.252,1.10E-04
14.256,1.10E-04
14.26,1.06E-04
14.264,1.03E-04
14.268,1.00E-04
14.272,9.53E-05
14.276,9.09E-05
14.28,8.88E-05
14.284,9.00E-05
14.288,9.21E-05
14.292,8.88E-05
14.296,8.00E-05
14.3,7.15E-05
14.304,7.48E-05
14.308,8.60E-05
14.312,9.34E-05
14.316,9.91E-05
14.32,1.05E-04
14.324,1.07E-04
14.328,1.05E-04
14.332,1.02E-04
14.336,9.77E-05
14.34,8.98E-05
14.344,8.13E-05
14.348,7.87E-05
14.352,8.16E-05
14.356,8.31E-05
14.36,8.21E-05
14.364,8.07E-05
14.368,7.85E-05
14.372,7.60E-05
14.376,7.36E-05
14.38,6.88E-05
14.384,5.93E-05
14.388,4.96E-05
14.392,4.89E-05
14.396,6.28E-05
14.4,8.20E-05
14.404,9.78E-05
14.408,1.10E-04
14.412,1.18E-04
14.416,1.22E-04
14.42,1.22E-04
14.424,1.19E-04
14.428,1.11E-04
14.432,1.04E-04
14.436,9.89E-05
14.44,9.77E-05
14.444,9.62E-05
14.448,8.84E-05
14.452,7.78E-05
14.456,7.47E-05
14.46,7.79E-05
14.464,8.15E-05
14.468,8.10E-05
14.472,7.65E-05
14.476,7.24E-05
14.48,7.09E-05
14.484,7.31E-05
14.488,7.52E-05
14.492,7.44E-05
14.496,7.12E-05
14.5,6.87E-05
14.504,6.69E-05
14.508,6.58E-05
14.512,6.62E-05
14.516,6.57E-05
14.52,6.37E-05
14.524,6.08E-05
14.528,5.86E-05
14.532,5.94E-05
14.536,6.35E-05
14.54,6.60E-05
14.544,6.86E-05
14.548,6.93E-05
14.552,6.90E-05
14.556,6.68E-05
14.56,6.54E-05
14.564,6.51E-05
14.568,6.39E-05
14.572,6.56E-05
14.576,6.75E-05
14.58,6.65E-05
14.584,6.50E-05
14.588,6.42E-05
14.592,6.33E-05
14.596,6.10E-05
14.6,5.41E-05
14.604,4.49E-05
14.608,4.63E-05
14.612,6.08E-05
14.616,7.18E-05
14.62,7.60E-05
14.624,7.71E-05
14.628,7.41E-05
14.632,6.82E-05
14.636,6.02E-05
14.64,5.42E-05
14.644,5.38E-05
14.648,5.37E-05
14.652,5.15E-05
14.656,5.01E-05
14.66,4.68E-05
14.664,4.57E-05
14.668,4.92E-05
14.672,4.86E-05
14.676,4.77E-05
14.68,4.69E-05
14.684,4.60E-05
14.688,4.21E-05
14.692,3.72E-05
14.696,3.47E-05
14.7,3.76E-05
14.704,4.09E-05
14.708,4.05E-05
14.712,3.89E-05
14.716,3.87E-05
14.72,3.94E-05
14.724,4.02E-05
14.728,3.86E-05
14.732,3.77E-05
14.736,3.93E-05
14.74,4.17E-05
14.744,4.04E-05
14.748,3.62E-05
14.752,3.26E-05
14.756,3.19E-05
14.76,3.56E-05
14.764,4.38E-05
14.768,5.29E-05
14.772,6.52E-05
14.776,8.11E-05
14.78,9.58E-05
14.784,1.02E-04
14.788,9.74E-05
14.792,8.71E-05
14.796,7.53E-05
14.8,6.28E-05
14.804,5.20E-05
14.808,4.31E-05
14.812,3.51E-05
14.816,2.65E-05
14.82,1.88E-05
14.824,1.33E-05
14.828,7.62E-06
14.832,7.69E-07
14.836,-4.64E-06
14.84,-8.32E-06
14.844,-1.32E-05
14.848,-1.78E-05
14.852,-2.01E-05
14.856,-1.81E-05
14.86,-1.43E-05
14.864,-1.13E-05
14.868,-5.79E-06
14.872,-2.52E-06
14.876,-4.33E-06
14.88,-8.34E-06
14.884,-1.38E-05
14.888,-1.90E-05
14.892,-1.53E-05
14.896,-6.54E-06
14.9,-1.27E-06
14.904,2.96E-06
14.908,4.35E-06
14.912,2.62E-06
14.916,-1.44E-06
14.92,-6.85E-06
14.924,-1.06E-05
14.928,-1.30E-05
14.932,-1.38E-05
14.936,-1.50E-05
14.94,-1.85E-05
14.944,-2.33E-05
14.948,-2.54E-05
14.952,-2.52E-05
14.956,-2.50E-05
14.96,-2.49E-05
14.964,-2.53E-05
14.968,-2.48E-05
14.972,-2.32E-05
14.976,-1.96E-05
14.98,-1.63E-05
14.984,-1.64E-05
14.988,-1.86E-05
14.992,-2.01E-05
14.996,-2.15E-05
15,-2.21E-05
15.004,-2.25E-05
15.008,-2.47E-05
15.012,-2.62E-05
15.016,-2.47E-05
15.02,-2.30E-05
15.024,-1.88E-05
15.028,-1.15E-05
15.032,-7.21E-07
15.036,9.38E-06
15.04,1.40E-05
15.044,1.35E-05
15.048,1.07E-05
15.052,7.91E-06
15.056,1.80E-06
15.06,-5.75E-06
15.064,-1.02E-05
15.068,-1.34E-05
15.072,-1.67E-05
15.076,-2.37E-05
15.08,-2.87E-05
15.084,-3.05E-05
15.088,-3.29E-05
15.092,-3.25E-05
15.096,-3.25E-05
15.1,-3.66E-05
15.104,-4.22E-05
15.108,-4.60E-05
15.112,-4.35E-05
15.116,-3.74E-05
15.12,-3.51E-05
15.124,-3.62E-05
15.128,-3.87E-05
15.132,-4.41E-05
15.136,-4.87E-05
15.14,-4.77E-05
15.144,-4.77E-05
15.148,-5.03E-05
15.152,-5.45E-05
15.156,-5.96E-05
15.16,-6.13E-05
15.164,-6.10E-05
15.168,-6.01E-05
15.172,-5.88E-05
15.176,-5.85E-05
15.18,-5.94E-05
15.184,-6.40E-05
15.188,-7.16E-05
15.192,-7.58E-05
15.196,-7.55E-05
15.2,-7.53E-05
15.204,-7.48E-05
15.208,-7.57E-05
15.212,-7.75E-05
15.216,-7.66E-05
15.22,-7.64E-05
15.224,-7.80E-05
15.228,-7.82E-05
15.232,-7.63E-05
15.236,-7.12E-05
15.24,-6.47E-05
15.244,-6.09E-05
15.248,-5.89E-05
15.252,-5.69E-05
15.256,-6.08E-05
15.26,-6.63E-05
15.264,-6.93E-05
15.268,-6.99E-05
15.272,-7.07E-05
15.276,-7.03E-05
15.28,-7.30E-05
15.284,-7.75E-05
15.288,-8.27E-05
15.292,-8.73E-05
15.296,-9.06E-05
15.3,-9.10E-05
15.304,-8.85E-05
15.308,-8.34E-05
15.312,-7.79E-05
15.316,-7.37E-05
15.32,-7.04E-05
15.324,-7.01E-05
15.328,-7.07E-05
15.332,-7.18E-05
15.336,-7.26E-05
15.34,-7.36E-05
15.344,-7.67E-05
15.348,-8.21E-05
15.352,-8.89E-05
15.356,-9.46E-05
15.36,-9.78E-05
15.364,-9.40E-05
15.368,-8.70E-05
15.372,-6.88E-05
15.376,-4.02E-05
15.38,-2.41E-05
15.384,-1.72E-05
15.388,-1.07E-05
15.392,-1.19E-05
15.396,-1.96E-05
15.4,-3.15E-05
15.404,-4.43E-05
15.408,-5.32E-05
15.412,-6.08E-05
15.416,-6.77E-05
15.42,-7.30E-05
15.424,-7.63E-05
15.428,-8.02E-05
15.432,-8.71E-05
15.436,-9.37E-05
15.44,-9.26E-05
15.444,-8.76E-05
15.448,-8.25E-05
15.452,-7.63E-05
15.456,-7.34E-05
15.46,-7.27E-05
15.464,-7.12E-05
15.468,-6.77E-05
15.472,-6.55E-05
15.476,-6.47E-05
15.48,-6.65E-05
15.484,-6.82E-05
15.488,-7.01E-05
15.492,-7.14E-05
15.496,-7.24E-05
15.5,-7.25E-05
15.504,-7.67E-05
15.508,-8.02E-05
15.512,-7.77E-05
15.516,-7.55E-05
15.52,-7.82E-05
15.524,-8.19E-05
15.528,-8.26E-05
15.532,-8.18E-05
15.536,-8.39E-05
15.54,-8.67E-05
15.544,-8.66E-05
15.548,-8.67E-05
15.552,-8.36E-05
15.556,-7.51E-05
15.56,-6.48E-05
15.564,-6.14E-05
15.568,-5.91E-05
15.572,-5.68E-05
15.576,-5.76E-05
15.58,-5.99E-05
15.584,-6.29E-05
15.588,-6.65E-05
15.592,-7.20E-05
15.596,-7.32E-05
15.6,-6.67E-05
15.604,-6.39E-05
15.608,-6.34E-05
15.612,-5.65E-05
15.616,-4.90E-05
15.62,-4.56E-05
15.624,-4.56E-05
15.628,-4.72E-05
15.632,-4.83E-05
15.636,-4.85E-05
15.64,-4.91E-05
15.644,-5.09E-05
15.648,-5.46E-05
15.652,-5.70E-05
15.656,-5.66E-05
15.66,-5.93E-05
15.664,-6.36E-05
15.668,-6.39E-05
15.672,-6.14E-05
15.676,-6.21E-05
15.68,-6.44E-05
15.684,-6.55E-05
15.688,-6.18E-05
15.692,-5.64E-05
15.696,-5.26E-05
15.7,-5.29E-05
15.704,-5.51E-05
15.708,-5.70E-05
15.712,-5.74E-05
15.716,-5.72E-05
15.72,-5.75E-05
15.724,-5.46E-05
15.728,-5.45E-05
15.732,-5.72E-05
15.736,-5.99E-05
15.74,-6.25E-05
15.744,-6.34E-05
15.748,-6.21E-05
15.752,-6.15E-05
15.756,-6.04E-05
15.76,-5.72E-05
15.764,-5.60E-05
15.768,-5.19E-05
15.772,-4.42E-05
15.776,-3.83E-05
15.78,-3.75E-05
15.784,-4.17E-05
15.788,-4.73E-05
15.792,-5.08E-05
15.796,-5.48E-05
15.8,-5.93E-05
15.804,-6.26E-05
15.808,-6.35E-05
15.812,-6.20E-05
15.816,-6.26E-05
15.82,-6.99E-05
15.824,-7.62E-05
15.828,-7.46E-05
15.832,-6.56E-05
15.836,-5.74E-05
15.84,-5.36E-05
15.844,-5.28E-05
15.848,-5.43E-05
15.852,-5.65E-05
15.856,-5.54E-05
15.86,-4.97E-05
15.864,-4.93E-05
15.868,-5.21E-05
15.872,-5.56E-05
15.876,-5.97E-05
15.88,-5.75E-05
15.884,-4.96E-05
15.888,-4.46E-05
15.892,-4.53E-05
15.896,-4.71E-05
15.9,-4.49E-05
15.904,-4.28E-05
15.908,-4.25E-05
15.912,-4.24E-05
15.916,-4.38E-05
15.92,-4.51E-05
15.924,-4.44E-05
15.928,-4.34E-05
15.932,-4.39E-05
15.936,-4.59E-05
15.94,-4.85E-05
15.944,-5.41E-05
15.948,-6.22E-05
15.952,-6.78E-05
15.956,-6.42E-05
15.96,-4.90E-05
15.964,-2.76E-05
15.968,-5.63E-06
15.972,1.46E-05
15.976,2.87E-05
15.98,3.57E-05
15.984,3.61E-05
15.988,2.84E-05
15.992,1.89E-05
15.996,1.26E-05
16,3.58E-06
16.004,-4.71E-06
16.008,-1.19E-05
16.012,-1.86E-05
16.016,-2.67E-05
16.02,-3.82E-05
16.024,-4.59E-05
16.028,-4.55E-05
16.032,-4.21E-05
16.036,-3.83E-05
16.04,-3.56E-05
16.044,-3.13E-05
16.048,-2.45E-05
16.052,-2.17E-05
16.056,-2.31E-05
16.06,-2.46E-05
16.064,-2.51E-05
16.068,-2.71E-05
16.072,-2.92E-05
16.076,-2.97E-05
16.08,-2.96E-05
16.084,-2.90E-05
16.088,-3.45E-05
16.092,-4.09E-05
16.096,-4.01E-05
16.1,-3.62E-05
16.104,-3.45E-05
16.108,-3.60E-05
16.112,-3.78E-05
16.116,-3.80E-05
16.12,-3.75E-05
16.124,-3.72E-05
16.128,-3.54E-05
16.132,-3.38E-05
16.136,-3.36E-05
16.14,-3.62E-05
16.144,-4.14E-05
16.148,-4.26E-05
16.152,-3.94E-05
16.156,-3.58E-05
16.16,-3.34E-05
16.164,-3.30E-05
16.168,-3.20E-05
16.172,-3.05E-05
16.176,-3.02E-05
16.18,-3.19E-05
16.184,-3.30E-05
16.188,-3.56E-05
16.192,-3.77E-05
16.196,-3.61E-05
16.2,-3.21E-05
16.204,-3.06E-05
16.208,-3.19E-05
16.212,-3.23E-05
16.216,-3.00E-05
16.22,-2.60E-05
16.224,-2.64E-05
16.228,-2.78E-05
16.232,-3.06E-05
16.236,-3.26E-05
16.24,-3.07E-05
16.244,-2.83E-05
16.248,-2.69E-05
16.252,-2.62E-05
16.256,-2.60E-05
16.26,-2.61E-05
16.264,-2.61E-05
16.268,-2.69E-05
16.272,-2.71E-05
16.276,-2.84E-05
16.28,-2.96E-05
16.284,-2.74E-05
16.288,-2.65E-05
16.292,-2.95E-05
16.296,-3.42E-05
16.3,-3.32E-05
16.304,-2.90E-05
16.308,-2.38E-05
16.312,-2.13E-05
16.316,-2.21E-05
16.32,-2.48E-05
16.324,-2.99E-05
16.328,-3.60E-05
16.332,-3.71E-05
16.336,-3.34E-05
16.34,-2.66E-05
16.344,-2.03E-05
16.348,-1.94E-05
16.352,-1.96E-05
16.356,-1.82E-05
16.36,-1.91E-05
16.364,-2.24E-05
16.368,-2.58E-05
16.372,-2.58E-05
16.376,-2.34E-05
16.38,-2.00E-05
16.384,-1.57E-05
16.388,-1.50E-05
16.392,-1.69E-05
16.396,-1.96E-05
16.4,-2.65E-05
16.404,-3.37E-05
16.408,-3.46E-05
16.412,-2.88E-05
16.416,-2.28E-05
16.42,-2.29E-05
16.424,-2.69E-05
16.428,-2.82E-05
16.432,-2.47E-05
16.436,-2.21E-05
16.44,-2.12E-05
16.444,-1.76E-05
16.448,-1.86E-05
16.452,-2.13E-05
16.456,-2.30E-05
16.46,-2.55E-05
16.464,-2.67E-05
16.468,-2.94E-05
16.472,-3.27E-05
16.476,-3.35E-05
16.48,-3.25E-05
16.484,-3.44E-05
16.488,-3.62E-05
16.492,-3.57E-05
16.496,-3.06E-05
16.5,-2.34E-05
16.504,-1.97E-05
16.508,-2.06E-05
16.512,-2.21E-05
16.516,-2.23E-05
16.52,-2.10E-05
16.524,-2.01E-05
16.528,-2.02E-05
16.532,-2.04E-05
16.536,-2.12E-05
16.54,-2.32E-05
16.544,-3.27E-05
16.548,-4.10E-05
16.552,-3.88E-05
16.556,-2.72E-05
16.56,-1.33E-05
16.564,4.23E-06
16.568,2.62E-05
16.572,4.72E-05
16.576,6.03E-05
16.58,6.69E-05
16.584,6.35E-05
16.588,5.66E-05
16.592,4.76E-05
16.596,3.66E-05
16.6,2.58E-05
16.604,1.55E-05
16.608,7.16E-06
16.612,-8.90E-07
16.616,-9.16E-06
16.62,-1.61E-05
16.624,-2.10E-05
16.628,-2.20E-05
16.632,-2.03E-05
16.636,-2.04E-05
16.64,-1.89E-05
16.644,-1.57E-05
16.648,-1.35E-05
16.652,-1.25E-05
16.656,-1.33E-05
16.66,-1.63E-05
16.664,-1.94E-05
16.668,-2.18E-05
16.672,-2.42E-05
16.676,-2.53E-05
16.68,-2.37E-05
16.684,-2.24E-05
16.688,-2.54E-05
16.692,-2.75E-05
16.696,-3.09E-05
16.7,-3.16E-05
16.704,-3.00E-05
16.708,-2.61E-05
16.712,-2.10E-05
16.716,-2.08E-05
16.72,-2.31E-05
16.724,-2.69E-05
16.728,-3.01E-05
16.732,-3.24E-05
16.736,-3.37E-05
16.74,-3.46E-05
16.744,-3.50E-05
16.748,-3.70E-05
16.752,-4.17E-05
16.756,-4.81E-05
16.76,-5.23E-05
16.764,-5.02E-05
16.768,-4.39E-05
16.772,-3.98E-05
16.776,-3.86E-05
16.78,-4.08E-05
16.784,-4.23E-05
16.788,-4.02E-05
16.792,-3.77E-05
16.796,-3.87E-05
16.8,-3.90E-05
16.804,-3.95E-05
16.808,-4.15E-05
16.812,-4.13E-05
16.816,-3.98E-05
16.82,-4.21E-05
16.824,-4.22E-05
16.828,-3.82E-05
16.832,-3.37E-05
16.836,-3.16E-05
16.84,-3.30E-05
16.844,-3.29E-05
16.848,-2.84E-05
16.852,-2.24E-05
16.856,-1.84E-05
16.86,-1.80E-05
16.864,-1.93E-05
16.868,-1.82E-05
16.872,-1.57E-05
16.876,-1.68E-05
16.88,-1.68E-05
16.884,-1.73E-05
16.888,-1.66E-05
16.892,-1.39E-05
16.896,-1.36E-05
16.9,-1.52E-05
16.904,-1.55E-05
16.908,-1.64E-05
16.912,-1.74E-05
16.916,-1.56E-05
16.92,-1.23E-05
16.924,-9.54E-06
16.928,-7.09E-06
16.932,-6.08E-06
16.936,-6.56E-06
16.94,-6.49E-06
16.944,-7.86E-06
16.948,-8.15E-06
16.952,-6.56E-06
16.956,-4.18E-06
16.96,-2.74E-06
16.964,-3.97E-06
16.968,-3.92E-06
16.972,-6.27E-06
16.976,-1.10E-05
16.98,-1.05E-05
16.984,3.68E-06
16.988,2.69E-05
16.992,4.94E-05
16.996,6.71E-05
17,7.68E-05
17.004,8.07E-05
17.008,7.92E-05
17.012,7.25E-05
17.016,6.30E-05
17.02,5.63E-05
17.024,5.30E-05
17.028,5.19E-05
17.032,4.84E-05
17.036,4.38E-05
17.04,3.93E-05
17.044,3.38E-05
17.048,2.85E-05
17.052,2.69E-05
17.056,2.47E-05
17.06,2.32E-05
17.064,2.19E-05
17.068,2.15E-05
17.072,2.35E-05
17.076,2.61E-05
17.08,2.89E-05
17.084,2.89E-05
17.088,2.66E-05
17.092,2.39E-05
17.096,2.23E-05
17.1,1.99E-05
17.104,1.70E-05
17.108,1.53E-05
17.112,1.55E-05
17.116,1.42E-05
17.12,8.17E-06
17.124,1.54E-06
17.128,1.42E-06
17.132,5.60E-06
17.136,1.07E-05
17.14,1.65E-05
17.144,2.17E-05
17.148,2.09E-05
17.152,1.69E-05
17.156,1.40E-05
17.16,9.86E-06
17.164,6.64E-06
17.168,1.19E-05
17.172,2.49E-05
17.176,4.12E-05
17.18,5.92E-05
17.184,7.32E-05
17.188,7.97E-05
17.192,8.43E-05
17.196,8.40E-05
17.2,7.65E-05
17.204,6.55E-05
17.208,5.35E-05
17.212,3.96E-05
17.216,2.78E-05
17.22,1.67E-05
17.224,1.10E-05
17.228,1.28E-05
17.232,1.47E-05
17.236,1.01E-05
17.24,5.99E-06
17.244,5.63E-06
17.248,6.76E-06
17.252,6.83E-06
17.256,5.19E-06
17.26,2.96E-06
17.264,2.26E-06
17.268,3.51E-06
17.272,5.29E-06
17.276,6.78E-06
17.28,2.45E-06
17.284,-5.10E-06
17.288,-1.28E-05
17.292,-1.65E-05
17.296,-9.69E-06
17.3,2.38E-06
17.304,6.44E-06
17.308,5.02E-06
17.312,2.28E-06
17.316,5.29E-07
17.32,-2.28E-06
17.324,-7.91E-06
17.328,-1.09E-05
17.332,-1.32E-05
17.336,-1.47E-05
17.34,-1.55E-05
17.344,-1.90E-05
17.348,-2.49E-05
17.352,-2.94E-05
17.356,-2.98E-05
17.36,-2.61E-05
17.364,-2.14E-05
17.368,-2.03E-05
17.372,-1.98E-05
17.376,-1.81E-05
17.38,-1.61E-05
17.384,-1.59E-05
17.388,-1.78E-05
17.392,-2.16E-05
17.396,-2.45E-05
17.4,-2.57E-05
17.404,-2.78E-05
17.408,-2.95E-05
17.412,-3.00E-05
17.416,-3.21E-05
17.42,-3.77E-05
17.424,-3.92E-05
17.428,-3.32E-05
17.432,-2.65E-05
17.436,-2.55E-05
17.44,-2.42E-05
17.444,-2.14E-05
17.448,-2.05E-05
17.452,-2.05E-05
17.456,-1.94E-05
17.46,-1.84E-05
17.464,-1.61E-05
17.468,-1.40E-05
17.472,-1.44E-05
17.476,-1.66E-05
17.48,-1.81E-05
17.484,-2.05E-05
17.488,-2.61E-05
17.492,-2.91E-05
17.496,-2.83E-05
17.5,-2.83E-05
17.504,-3.00E-05
17.508,-2.69E-05
17.512,-2.05E-05
17.516,-1.68E-05
17.52,-1.62E-05
17.524,-1.55E-05
17.528,-1.48E-05
17.532,-1.40E-05
17.536,-1.46E-05
17.54,-1.52E-05
17.544,-1.31E-05
17.548,-1.40E-05
17.552,-1.81E-05
17.556,-2.09E-05
17.56,-2.13E-05
17.564,-2.19E-05
17.568,-2.20E-05
17.572,-2.24E-05
17.576,-1.88E-05
17.58,-1.12E-05
17.584,-1.25E-06
17.588,3.75E-06
17.592,3.34E-06
17.596,7.93E-07
17.6,-2.19E-06
17.604,-6.03E-06
17.608,-1.07E-05
17.612,-1.49E-05
17.616,-2.16E-05
17.62,-2.63E-05
17.624,-2.89E-05
17.628,-3.32E-05
17.632,-3.81E-05
17.636,-4.18E-05
17.64,-4.38E-05
17.644,-4.47E-05
17.648,-4.34E-05
17.652,-3.92E-05
17.656,-3.00E-05
17.66,-2.00E-05
17.664,-1.35E-05
17.668,-1.04E-05
17.672,-8.15E-06
17.676,-7.45E-06
17.68,-9.28E-06
17.684,-1.36E-05
17.688,-1.78E-05
17.692,-2.16E-05
17.696,-2.46E-05
17.7,-2.55E-05
17.704,-2.43E-05
17.708,-2.33E-05
17.712,-2.16E-05
17.716,-2.26E-05
17.72,-2.64E-05
17.724,-2.94E-05
17.728,-3.01E-05
17.732,-2.71E-05
17.736,-2.31E-05
17.74,-2.25E-05
17.744,-2.44E-05
17.748,-2.71E-05
17.752,-3.07E-05
17.756,-3.22E-05
17.76,-3.09E-05
17.764,-3.00E-05
17.768,-3.02E-05
17.772,-3.12E-05
17.776,-3.69E-05
17.78,-4.38E-05
17.784,-4.75E-05
17.788,-4.67E-05
17.792,-3.75E-05
17.796,-2.42E-05
17.8,-1.08E-05
17.804,4.95E-06
17.808,2.19E-05
17.812,3.26E-05
17.816,3.43E-05
17.82,2.82E-05
17.824,2.03E-05
17.828,1.36E-05
17.832,5.79E-06
17.836,-1.01E-06
17.84,-8.08E-06
17.844,-1.50E-05
17.848,-2.20E-05
17.852,-2.87E-05
17.856,-3.31E-05
17.86,-3.69E-05
17.864,-4.11E-05
17.868,-4.48E-05
17.872,-4.91E-05
17.876,-5.43E-05
17.88,-5.67E-05
17.884,-5.61E-05
17.888,-5.45E-05
17.892,-5.11E-05
17.896,-4.63E-05
17.9,-3.92E-05
17.904,-3.21E-05
17.908,-3.08E-05
17.912,-3.13E-05
17.916,-3.12E-05
17.92,-3.12E-05
17.924,-3.16E-05
17.928,-3.42E-05
17.932,-3.87E-05
17.936,-4.10E-05
17.94,-4.15E-05
17.944,-4.29E-05
17.948,-4.49E-05
17.952,-4.82E-05
17.956,-5.21E-05
17.96,-5.34E-05
17.964,-5.49E-05
17.968,-5.29E-05
17.972,-4.59E-05
17.976,-4.05E-05
17.98,-3.63E-05
17.984,-3.60E-05
17.988,-3.49E-05
17.992,-2.98E-05
17.996,-2.69E-05
18,-2.81E-05
18.004,-2.92E-05
18.008,-3.06E-05
18.012,-3.25E-05
18.016,-3.43E-05
18.02,-3.90E-05
18.024,-4.50E-05
18.028,-4.87E-05
18.032,-4.89E-05
18.036,-4.68E-05
18.04,-4.19E-05
18.044,-3.88E-05
18.048,-4.18E-05
18.052,-4.48E-05
18.056,-4.21E-05
18.06,-3.42E-05
18.064,-2.87E-05
18.068,-2.54E-05
18.072,-2.49E-05
18.076,-2.69E-05
18.08,-3.15E-05
18.084,-3.60E-05
18.088,-4.00E-05
18.092,-4.38E-05
18.096,-4.81E-05
18.1,-5.08E-05
18.104,-4.96E-05
18.108,-4.62E-05
18.112,-4.54E-05
18.116,-4.63E-05
18.12,-4.56E-05
18.124,-4.33E-05
18.128,-3.88E-05
18.132,-3.51E-05
18.136,-3.26E-05
18.14,-3.14E-05
18.144,-2.97E-05
18.148,-2.85E-05
18.152,-2.83E-05
18.156,-2.88E-05
18.16,-3.01E-05
18.164,-3.16E-05
18.168,-3.56E-05
18.172,-3.88E-05
18.176,-4.12E-05
18.18,-4.45E-05
18.184,-4.35E-05
18.188,-3.85E-05
18.192,-3.33E-05
18.196,-3.19E-05
18.2,-2.98E-05
18.204,-2.35E-05
18.208,-1.97E-05
18.212,-1.89E-05
18.216,-1.85E-05
18.22,-1.82E-05
18.224,-2.06E-05
18.228,-2.15E-05
18.232,-2.39E-05
18.236,-2.72E-05
18.24,-2.90E-05
18.244,-3.17E-05
18.248,-3.46E-05
18.252,-3.56E-05
18.256,-3.45E-05
18.26,-3.30E-05
18.264,-3.14E-05
18.268,-3.28E-05
18.272,-2.66E-05
18.276,-1.39E-05
18.28,-7.00E-06
18.284,-4.93E-06
18.288,-3.10E-06
18.292,-1.23E-06
18.296,1.20E-06
18.3,1.18E-06
18.304,-2.02E-06
18.308,-4.62E-06
18.312,-7.60E-06
18.316,-1.08E-05
18.32,-1.05E-05
18.324,-8.63E-06
18.328,-8.56E-06
18.332,-7.79E-06
18.336,-6.76E-06
18.34,-3.05E-06
18.344,1.03E-06
18.348,2.48E-06
18.352,5.36E-06
18.356,6.76E-06
18.36,4.83E-06
18.364,2.28E-06
18.368,-1.44E-07
18.372,-2.24E-06
18.376,-1.47E-06
18.38,-2.91E-06
18.384,-6.97E-06
18.388,-8.68E-06
18.392,-8.94E-06
18.396,-9.26E-06
18.4,-1.04E-05
18.404,-1.13E-05
18.408,-9.95E-06
18.412,-6.71E-06
18.416,1.13E-06
18.42,1.38E-05
18.424,2.93E-05
18.428,4.49E-05
18.432,5.39E-05
18.436,5.78E-05
18.44,5.70E-05
18.444,5.15E-05
18.448,3.97E-05
18.452,2.53E-05
18.456,1.62E-05
18.46,1.32E-05
18.464,1.19E-05
18.468,1.17E-05
18.472,1.05E-05
18.476,7.64E-06
18.48,6.83E-06
18.484,9.30E-06
18.488,1.40E-05
18.492,1.65E-05
18.496,1.54E-05
18.5,1.36E-05
18.504,1.17E-05
18.508,1.04E-05
18.512,1.07E-05
18.516,8.20E-06
18.52,3.75E-06
18.524,-3.58E-06
18.528,-9.59E-06
18.532,-8.99E-06
18.536,-3.15E-06
18.54,6.51E-06
18.544,1.18E-05
18.548,1.09E-05
18.552,9.30E-06
18.556,9.64E-06
18.56,1.05E-05
18.564,1.10E-05
18.568,1.05E-05
18.572,1.01E-05
18.576,1.01E-05
18.58,1.06E-05
18.584,9.33E-06
18.588,5.99E-06
18.592,3.70E-06
18.596,4.04E-06
18.6,5.00E-06
18.604,2.84E-06
18.608,-1.30E-06
18.612,-2.57E-06
18.616,-2.16E-07
18.62,1.95E-06
18.624,3.41E-06
18.628,3.77E-06
18.632,5.91E-06
18.636,6.85E-06
18.64,5.99E-06
18.644,4.66E-06
18.648,1.13E-06
18.652,-2.52E-06
18.656,-4.47E-06
18.66,-5.55E-06
18.664,-4.98E-06
18.668,-6.51E-06
18.672,-1.15E-05
18.676,-1.18E-05
18.68,-6.18E-06
18.684,-2.19E-06
18.688,-4.57E-06
18.692,-3.99E-06
18.696,5.02E-06
18.7,1.99E-05
18.704,3.88E-05
18.708,5.60E-05
18.712,6.65E-05
18.716,6.94E-05
18.72,6.90E-05
18.724,6.78E-05
18.728,6.61E-05
18.732,6.25E-05
18.736,5.88E-05
18.74,5.37E-05
18.744,4.76E-05
18.748,4.37E-05
18.752,4.01E-05
18.756,3.62E-05
18.76,3.75E-05
18.764,3.80E-05
18.768,3.92E-05
18.772,4.14E-05
18.776,4.05E-05
18.78,4.07E-05
18.784,4.32E-05
18.788,4.31E-05
18.792,4.15E-05
18.796,3.86E-05
18.8,3.83E-05
18.804,3.91E-05
18.808,3.95E-05
18.812,3.81E-05
18.816,3.48E-05
18.82,3.28E-05
18.824,3.21E-05
18.828,3.12E-05
18.832,2.89E-05
18.836,2.50E-05
18.84,1.96E-05
18.844,1.73E-05
18.848,1.76E-05
18.852,1.50E-05
18.856,1.80E-05
18.86,2.49E-05
18.864,2.90E-05
18.868,3.13E-05
18.872,3.16E-05
18.876,2.99E-05
18.88,3.04E-05
18.884,2.77E-05
18.888,2.33E-05
18.892,2.11E-05
18.896,1.91E-05
18.9,1.73E-05
18.904,1.83E-05
18.908,1.86E-05
18.912,1.75E-05
18.916,1.55E-05
18.92,1.40E-05
18.924,1.49E-05
18.928,1.72E-05
18.932,1.80E-05
18.936,1.92E-05
18.94,1.98E-05
18.944,2.00E-05
18.948,2.18E-05
18.952,2.30E-05
18.956,2.26E-05
18.96,2.21E-05
18.964,2.13E-05
18.968,1.93E-05
18.972,1.61E-05
18.976,1.15E-05
18.98,1.13E-05
18.984,1.75E-05
18.988,2.17E-05
18.992,2.32E-05
18.996,2.24E-05
19,1.94E-05
19.004,1.54E-05
19.008,1.13E-05
19.012,8.32E-06
19.016,9.52E-06
19.02,1.38E-05
19.024,1.85E-05
19.028,2.01E-05
19.032,1.39E-05
19.036,1.73E-06
19.04,-3.94E-06
19.044,2.28E-06
19.048,1.64E-05
19.052,3.59E-05
19.056,5.64E-05
19.06,7.33E-05
19.064,8.29E-05
19.068,8.81E-05
19.072,8.88E-05
19.076,8.30E-05
19.08,7.40E-05
19.084,6.24E-05
19.088,5.15E-05
19.092,4.32E-05
19.096,3.54E-05
19.1,2.42E-05
19.104,1.50E-05
19.108,1.27E-05
19.112,1.30E-05
19.116,1.19E-05
19.12,1.13E-05
19.124,1.25E-05
19.128,1.27E-05
19.132,1.25E-05
19.136,1.24E-05
19.14,1.29E-05
19.144,1.10E-05
19.148,7.02E-06
19.152,4.09E-06
19.156,6.92E-06
19.16,1.05E-05
19.164,1.08E-05
19.168,8.56E-06
19.172,7.00E-06
19.176,6.11E-06
19.18,6.85E-06
19.184,7.62E-06
19.188,6.32E-06
19.192,2.67E-06
19.196,-2.33E-06
19.2,-8.32E-06
19.204,-1.33E-05
19.208,-1.02E-05
19.212,-3.53E-06
19.216,1.11E-06
19.22,4.09E-06
19.224,4.16E-06
19.228,4.47E-06
19.232,5.87E-06
19.236,7.43E-06
19.24,8.51E-06
19.244,6.88E-06
19.248,4.66E-06
19.252,1.92E-07
19.256,-5.34E-06
19.26,-8.49E-06
19.264,-1.08E-05
19.268,-1.09E-05
19.272,-9.66E-06
19.276,-9.69E-06
19.28,-1.16E-05
19.284,-1.19E-05
19.288,-8.87E-06
19.292,-6.27E-06
19.296,-4.06E-06
19.3,-3.89E-06
19.304,-6.01E-06
19.308,-9.40E-06
19.312,-1.29E-05
19.316,-1.00E-05
19.32,-6.47E-06
19.324,-7.28E-06
19.328,-6.83E-06
19.332,-5.00E-06
19.336,-3.03E-06
19.34,9.38E-07
19.344,6.56E-06
19.348,8.58E-06
19.352,9.30E-06
19.356,8.20E-06
19.36,6.88E-06
19.364,6.39E-06
19.368,6.49E-06
19.372,5.39E-06
19.376,3.70E-06
19.38,2.48E-06
19.384,2.19E-06
19.388,4.11E-06
19.392,5.36E-06
19.396,4.23E-06
19.4,0
19.404,-6.47E-06
19.408,-8.82E-06
19.412,-7.36E-06
19.416,-6.97E-06
19.42,-3.41E-06
19.424,2.91E-06
19.428,6.68E-06
19.432,9.23E-06
19.436,8.44E-06
19.44,5.87E-06
19.444,3.80E-06
19.448,2.28E-06
19.452,2.19E-06
19.456,3.15E-06
19.46,1.59E-06
19.464,2.64E-07
19.468,-2.40E-07
19.472,-1.25E-06
19.476,-6.88E-06
19.48,-1.30E-05
19.484,-1.20E-05
19.488,-6.92E-06
19.492,-5.05E-07
19.496,7.96E-06
19.5,1.49E-05
19.504,1.72E-05
19.508,1.74E-05
19.512,1.47E-05
19.516,1.14E-05
19.52,1.07E-05
19.524,1.11E-05
19.528,9.04E-06
19.532,4.66E-06
19.536,3.15E-06
19.54,4.59E-06
19.544,5.60E-06
19.548,5.43E-06
19.552,4.90E-06
19.556,4.71E-06
19.56,3.20E-06
19.564,5.26E-06
19.568,9.71E-06
19.572,1.28E-05
19.576,1.78E-05
19.58,2.17E-05
19.584,2.44E-05
19.588,2.47E-05
19.592,2.14E-05
19.596,1.76E-05
19.6,1.54E-05
19.604,1.37E-05
19.608,1.17E-05
19.612,9.11E-06
19.616,1.88E-06
19.62,-4.13E-06
19.624,-5.79E-06
19.628,-4.90E-06
19.632,-2.07E-06
19.636,5.51E-06
19.64,1.28E-05
19.644,1.79E-05
19.648,1.83E-05
19.652,1.29E-05
19.656,8.68E-06
19.66,7.69E-06
19.664,7.21E-06
19.668,3.92E-06
19.672,-1.63E-06
19.676,-7.07E-06
19.68,-7.72E-06
19.684,-9.86E-07
19.688,1.18E-05
19.692,2.68E-05
19.696,4.21E-05
19.7,5.16E-05
19.704,5.86E-05
19.708,6.67E-05
19.712,6.73E-05
19.716,6.14E-05
19.72,5.60E-05
19.724,5.07E-05
19.728,4.31E-05
19.732,3.32E-05
19.736,2.51E-05
19.74,1.86E-05
19.744,1.18E-05
19.748,6.44E-06
19.752,1.75E-06
19.756,-2.74E-06
19.76,-5.79E-06
19.764,-5.34E-06
19.768,-3.03E-06
19.772,-4.35E-06
19.776,-1.15E-05
19.78,-1.84E-05
19.784,-1.86E-05
19.788,-1.39E-05
19.792,-9.52E-06
19.796,-8.94E-06
19.8,-6.18E-06
19.804,-3.49E-06
19.808,-2.57E-06
19.812,-2.52E-06
19.816,-3.05E-06
19.82,-6.61E-06
19.824,-8.56E-06
19.828,-9.38E-06
19.832,-1.09E-05
19.836,-1.38E-05
19.84,-1.84E-05
19.844,-2.42E-05
19.848,-2.75E-05
19.852,-2.83E-05
19.856,-2.89E-05
19.86,-2.92E-05
19.864,-3.13E-05
19.868,-3.11E-05
19.872,-2.73E-05
19.876,-2.28E-05
19.88,-1.73E-05
19.884,-1.62E-05
19.888,-1.85E-05
19.892,-2.26E-05
19.896,-2.48E-05
19.9,-2.48E-05
19.904,-2.52E-05
19.908,-2.82E-05
19.912,-3.14E-05
19.916,-3.52E-05
19.92,-4.03E-05
19.924,-4.40E-05
19.928,-4.19E-05
19.932,-3.84E-05
19.936,-3.18E-05
19.94,-2.36E-05
19.944,-1.97E-05
19.948,-1.60E-05
19.952,-1.53E-05
19.956,-1.52E-05
19.96,-1.32E-05
19.964,-1.12E-05
19.968,-1.24E-05
19.972,-1.45E-05
19.976,-1.50E-05
19.98,-1.19E-05
19.984,-1.10E-05
19.988,-2.01E-05
19.992,-3.46E-05
19.996,-3.85E-05
20,-2.73E-05
20.004,-1.66E-05
20.008,-1.31E-05
20.012,-1.16E-05
20.016,-1.18E-05
20.02,-1.94E-05
20.024,-2.82E-05
20.028,-3.04E-05
20.032,-2.49E-05
20.036,-2.10E-05
20.04,-2.11E-05
20.044,-2.75E-05
20.048,-3.50E-05
20.052,-3.67E-05
20.056,-3.23E-05
20.06,-2.37E-05
20.064,-1.75E-05
20.068,-2.01E-05
20.072,-2.62E-05
20.076,-3.28E-05
20.08,-3.37E-05
20.084,-2.73E-05
20.088,-2.45E-05
20.092,-3.03E-05
20.096,-3.91E-05
20.1,-4.33E-05
20.104,-4.32E-05
20.108,-3.83E-05
20.112,-3.38E-05
20.116,-3.79E-05
20.12,-4.63E-05
20.124,-4.90E-05
20.128,-4.56E-05
20.132,-4.34E-05
20.136,-3.83E-05
20.14,-3.63E-05
20.144,-4.04E-05
20.148,-4.49E-05
20.152,-4.47E-05
20.156,-4.41E-05
20.16,-3.86E-05
20.164,-2.78E-05
20.168,-2.21E-05
20.172,-1.92E-05
20.176,-1.76E-05
20.18,-2.30E-05
20.184,-2.92E-05
20.188,-3.48E-05
20.192,-3.68E-05
20.196,-3.90E-05
20.2,-4.70E-05
20.204,-5.54E-05
20.208,-5.30E-05
20.212,-3.92E-05
20.216,-2.46E-05
20.22,-1.76E-05
20.224,-1.70E-05
20.228,-1.88E-05
20.232,-2.22E-05
20.236,-2.67E-05
20.24,-2.96E-05
20.244,-3.37E-05
20.248,-4.31E-05
20.252,-5.26E-05
20.256,-5.84E-05
20.26,-5.79E-05
20.264,-5.47E-05
20.268,-5.26E-05
20.272,-4.80E-05
20.276,-4.45E-05
20.28,-4.23E-05
20.284,-3.94E-05
20.288,-3.56E-05
20.292,-3.57E-05
20.296,-3.76E-05
20.3,-4.30E-05
20.304,-4.66E-05
20.308,-4.55E-05
20.312,-4.16E-05
20.316,-3.59E-05
20.32,-2.88E-05
20.324,-2.01E-05
20.328,-1.04E-05
20.332,-4.95E-06
20.336,-7.07E-06
20.34,-5.99E-06
20.344,-2.40E-07
20.348,1.20E-07
20.352,-6.42E-06
20.356,-1.82E-05
20.36,-2.77E-05
20.364,-2.85E-05
20.368,-2.49E-05
20.372,-2.54E-05
20.376,-3.22E-05
20.38,-4.67E-05
20.384,-5.92E-05
20.388,-5.61E-05
20.392,-4.26E-05
20.396,-3.34E-05
20.4,-3.37E-05
20.404,-4.52E-05
20.408,-5.47E-05
20.412,-5.16E-05
20.416,-4.07E-05
20.42,-3.47E-05
20.424,-3.63E-05
20.428,-3.86E-05
20.432,-3.97E-05
20.436,-4.04E-05
20.44,-3.86E-05
20.444,-3.55E-05
20.448,-3.98E-05
20.452,-5.31E-05
20.456,-6.97E-05
20.46,-8.19E-05
20.464,-7.60E-05
20.468,-5.98E-05
20.472,-5.44E-05
20.476,-6.01E-05
20.48,-6.56E-05
20.484,-6.22E-05
20.488,-5.58E-05
20.492,-5.43E-05
20.496,-5.59E-05
20.5,-6.10E-05
20.504,-6.84E-05
20.508,-6.47E-05
20.512,-5.83E-05
20.516,-6.12E-05
20.52,-6.52E-05
20.524,-6.88E-05
20.528,-7.18E-05
20.532,-6.88E-05
20.536,-6.50E-05
20.54,-6.28E-05
20.544,-6.21E-05
20.548,-6.60E-05
20.552,-7.33E-05
20.556,-7.45E-05
20.56,-6.66E-05
20.564,-6.19E-05
20.568,-6.64E-05
20.572,-9.10E-05
20.576,-1.16E-04
20.58,-1.08E-04
20.584,-8.29E-05
20.588,-6.71E-05
20.592,-6.56E-05
20.596,-7.89E-05
20.6,-8.95E-05
20.604,-8.64E-05
20.608,-7.90E-05
20.612,-7.18E-05
20.616,-6.94E-05
20.62,-6.92E-05
20.624,-6.92E-05
20.628,-6.98E-05
20.632,-6.58E-05
20.636,-6.20E-05
20.64,-6.16E-05
20.644,-6.28E-05
20.648,-6.45E-05
20.652,-7.07E-05
20.656,-7.66E-05
20.66,-7.10E-05
20.664,-6.23E-05
20.668,-6.84E-05
20.672,-8.55E-05
20.676,-8.33E-05
20.68,-6.78E-05
20.684,-6.27E-05
20.688,-6.36E-05
20.692,-6.92E-05
20.696,-7.97E-05
20.7,-8.31E-05
20.704,-7.83E-05
20.708,-6.78E-05
20.712,-6.25E-05
20.716,-6.92E-05
20.72,-7.26E-05
20.724,-6.49E-05
20.728,-5.97E-05
20.732,-6.39E-05
20.736,-6.76E-05
20.74,-7.07E-05
20.744,-7.17E-05
20.748,-6.29E-05
20.752,-5.78E-05
20.756,-5.61E-05
20.76,-5.56E-05
20.764,-5.96E-05
20.768,-6.55E-05
20.772,-6.42E-05
20.776,-6.92E-05
20.78,-7.58E-05
20.784,-7.22E-05
20.788,-6.48E-05
20.792,-7.18E-05
20.796,-8.37E-05
20.8,-8.15E-05
20.804,-6.05E-05
20.808,-3.98E-05
20.812,-3.90E-05
20.816,-4.20E-05
20.82,-3.67E-05
20.824,-3.34E-05
20.828,-2.60E-05
20.832,-2.07E-05
20.836,-1.65E-05
20.84,-1.41E-05
20.844,-2.28E-05
20.848,-3.18E-05
20.852,-3.35E-05
20.856,-3.17E-05
20.86,-2.54E-05
20.864,-3.02E-05
20.868,-4.67E-05
20.872,-4.83E-05
20.876,-2.35E-05
20.88,-1.10E-05
20.884,-1.00E-05
20.888,-6.92E-06
20.892,-8.17E-07
20.896,3.75E-06
20.9,7.91E-06
20.904,6.18E-06
20.908,8.34E-06
20.912,1.28E-05
20.916,2.83E-05
20.92,3.26E-05
20.924,2.25E-05
20.928,2.14E-06
20.932,-1.47E-05
20.936,-1.35E-06
20.94,2.50E-05
20.944,3.17E-05
20.948,3.90E-05
20.952,4.84E-05
20.956,5.80E-05
20.96,6.90E-05
20.964,8.42E-05
20.968,9.09E-05
20.972,8.62E-05
20.976,7.64E-05
20.98,7.44E-05
20.984,7.41E-05
20.988,6.66E-05
20.992,5.16E-05
20.996,4.66E-05
21,4.64E-05
21.004,4.15E-05
21.008,2.82E-05
21.012,2.01E-05
21.016,2.60E-05
21.02,2.87E-05
21.024,3.51E-05
21.028,2.78E-05
21.032,1.74E-05
21.036,2.44E-05
21.04,3.42E-05
21.044,3.45E-05
21.048,3.24E-05
21.052,2.33E-05
21.056,1.16E-05
21.06,1.28E-05
21.064,2.33E-05
21.068,2.72E-05
21.072,1.62E-05
21.076,3.46E-06
21.08,5.14E-06
21.084,1.79E-05
21.088,3.26E-05
21.092,3.19E-05
21.096,2.22E-05
21.1,1.80E-05
21.104,2.62E-05
21.108,5.09E-05
21.112,6.26E-05
21.116,6.18E-05
21.12,5.65E-05
21.124,5.70E-05
21.128,5.69E-05
21.132,5.59E-05
21.136,5.20E-05
21.14,4.34E-05
21.144,2.70E-05
21.148,2.31E-05
21.152,2.70E-05
21.156,2.83E-05
21.16,3.42E-05
21.164,3.43E-05
21.168,3.47E-05
21.172,3.71E-05
21.176,3.75E-05
21.18,4.32E-05
21.184,4.35E-05
21.188,3.38E-05
21.192,3.14E-05
21.196,4.03E-05
21.2,4.82E-05
21.204,5.31E-05
21.208,4.49E-05
21.212,4.29E-05
21.216,4.89E-05
21.22,5.57E-05
21.224,6.21E-05
21.228,6.70E-05
21.232,6.65E-05
21.236,5.63E-05
21.24,4.35E-05
21.244,4.45E-05
21.248,4.88E-05
21.252,5.56E-05
21.256,5.87E-05
21.26,5.53E-05
21.264,4.83E-05
21.268,3.38E-05
21.272,2.03E-05
21.276,2.70E-05
21.28,3.77E-05
21.284,3.32E-05
21.288,3.21E-05
21.292,3.79E-05
21.296,4.02E-05
21.3,3.50E-05
21.304,3.57E-05
21.308,4.02E-05
21.312,4.01E-05
21.316,4.34E-05
21.32,4.38E-05
21.324,3.91E-05
21.328,3.82E-05
21.332,4.30E-05
21.336,4.65E-05
21.34,4.08E-05
21.344,2.72E-05
21.348,2.14E-05
21.352,3.36E-05
21.356,4.66E-05
21.36,4.48E-05
21.364,3.67E-05
21.368,4.28E-05
21.372,5.44E-05
21.376,5.85E-05
21.38,6.11E-05
21.384,6.51E-05
21.388,6.57E-05
21.392,6.21E-05
21.396,5.45E-05
21.4,4.38E-05
21.404,3.75E-05
21.408,2.95E-05
21.412,2.33E-05
21.416,2.39E-05
21.42,2.54E-05
21.424,2.86E-05
21.428,3.79E-05
21.432,4.60E-05
21.436,4.96E-05
21.44,4.46E-05
21.444,3.42E-05
21.448,2.73E-05
21.452,2.92E-05
21.456,4.26E-05
21.46,5.03E-05
21.464,4.67E-05
21.468,3.04E-05
21.472,1.58E-05
21.476,2.52E-05
21.48,3.97E-05
21.484,4.37E-05
21.488,3.98E-05
21.492,3.73E-05
21.496,3.52E-05
21.5,4.50E-05
21.504,5.79E-05
21.508,6.41E-05
21.512,6.65E-05
21.516,6.00E-05
21.52,5.04E-05
21.524,4.94E-05
21.528,5.31E-05
21.532,5.67E-05
21.536,5.70E-05
21.54,5.39E-05
21.544,4.37E-05
21.548,3.71E-05
21.552,4.36E-05
21.556,4.93E-05
21.56,4.79E-05
21.564,4.20E-05
21.568,4.21E-05
21.572,5.44E-05
21.576,8.15E-05
21.58,1.04E-04
21.584,1.11E-04
21.588,1.12E-04
21.592,1.04E-04
21.596,8.88E-05
21.6,8.49E-05
21.604,8.58E-05
21.608,8.39E-05
21.612,7.95E-05
21.616,6.48E-05
21.62,5.88E-05
21.624,6.89E-05
21.628,7.90E-05
21.632,8.97E-05
21.636,9.55E-05
21.64,9.24E-05
21.644,8.69E-05
21.648,8.01E-05
21.652,7.70E-05
21.656,8.00E-05
21.66,7.85E-05
21.664,7.53E-05
21.668,7.68E-05
21.672,7.50E-05
21.676,7.56E-05
21.68,8.14E-05
21.684,9.37E-05
21.688,9.85E-05
21.692,9.67E-05
21.696,8.49E-05
21.7,7.96E-05
21.704,8.77E-05
21.708,9.27E-05
21.712,9.50E-05
21.716,8.95E-05
21.72,8.78E-05
21.724,9.34E-05
21.728,9.20E-05
21.732,8.01E-05
21.736,6.93E-05
21.74,6.91E-05
21.744,7.09E-05
21.748,6.81E-05
21.752,7.33E-05
21.756,8.37E-05
21.76,8.32E-05
21.764,8.60E-05
21.768,9.57E-05
21.772,9.46E-05
21.776,9.23E-05
21.78,9.03E-05
21.784,8.47E-05
21.788,8.37E-05
21.792,8.90E-05
21.796,8.50E-05
21.8,7.53E-05
21.804,7.42E-05
21.808,7.80E-05
21.812,7.53E-05
21.816,6.50E-05
21.82,6.45E-05
21.824,7.55E-05
21.828,7.25E-05
21.832,6.79E-05
21.836,7.70E-05
21.84,8.68E-05
21.844,8.59E-05
21.848,8.10E-05
21.852,7.72E-05
21.856,7.82E-05
21.86,7.66E-05
21.864,6.64E-05
21.868,6.16E-05
21.872,6.75E-05
21.876,7.90E-05
21.88,8.28E-05
21.884,7.89E-05
21.888,6.52E-05
21.892,5.70E-05
21.896,6.16E-05
21.9,7.45E-05
21.904,9.06E-05
21.908,9.74E-05
21.912,9.46E-05
21.916,8.49E-05
21.92,8.35E-05
21.924,9.32E-05
21.928,9.90E-05
21.932,1.03E-04
21.936,1.05E-04
21.94,1.02E-04
21.944,9.57E-05
21.948,8.65E-05
21.952,7.70E-05
21.956,7.60E-05
21.96,8.20E-05
21.964,9.07E-05
21.968,9.33E-05
21.972,9.19E-05
21.976,8.71E-05
21.98,8.65E-05
21.984,9.36E-05
21.988,9.59E-05
21.992,9.85E-05
21.996,1.03E-04
22,1.06E-04
22.004,1.00E-04
22.008,9.25E-05
22.012,8.79E-05
22.016,8.53E-05
22.02,8.12E-05
22.024,7.64E-05
22.028,7.02E-05
22.032,6.11E-05
22.036,5.77E-05
22.04,6.46E-05
22.044,8.46E-05
22.048,1.11E-04
22.052,1.29E-04
22.056,1.40E-04
22.06,1.56E-04
22.064,1.70E-04
22.068,1.65E-04
22.072,1.55E-04
22.076,1.49E-04
22.08,1.42E-04
22.084,1.30E-04
22.088,1.17E-04
22.092,1.11E-04
22.096,1.11E-04
22.1,1.08E-04
22.104,9.77E-05
22.108,8.47E-05
22.112,8.40E-05
22.116,9.31E-05
22.12,9.56E-05
22.124,9.39E-05
22.128,9.49E-05
22.132,9.95E-05
22.136,1.05E-04
22.14,1.03E-04
22.144,9.86E-05
22.148,9.23E-05
22.152,8.61E-05
22.156,8.27E-05
22.16,7.89E-05
22.164,6.73E-05
22.168,5.26E-05
22.172,5.66E-05
22.176,7.23E-05
22.18,8.39E-05
22.184,9.15E-05
22.188,9.62E-05
22.192,1.05E-04
22.196,1.28E-04
22.2,1.49E-04
22.204,1.60E-04
22.208,1.63E-04
22.212,1.59E-04
22.216,1.53E-04
22.22,1.45E-04
22.224,1.30E-04
22.228,1.15E-04
22.232,1.02E-04
22.236,9.73E-05
22.24,1.02E-04
22.244,1.03E-04
22.248,9.85E-05
22.252,9.60E-05
22.256,8.99E-05
22.26,8.96E-05
22.264,1.02E-04
22.268,1.22E-04
22.272,1.40E-04
22.276,1.53E-04
22.28,1.65E-04
22.284,1.73E-04
22.288,1.74E-04
22.292,1.67E-04
22.296,1.60E-04
22.3,1.51E-04
22.304,1.41E-04
22.308,1.32E-04
22.312,1.25E-04
22.316,1.18E-04
22.32,1.07E-04
22.324,9.65E-05
22.328,9.29E-05
22.332,9.08E-05
22.336,9.45E-05
22.34,1.04E-04
22.344,1.04E-04
22.348,9.88E-05
22.352,9.88E-05
22.356,1.03E-04
22.36,1.05E-04
22.364,1.02E-04
22.368,9.62E-05
22.372,9.08E-05
22.376,8.39E-05
22.38,7.79E-05
22.384,7.52E-05
22.388,7.19E-05
22.392,6.50E-05
22.396,5.62E-05
22.4,5.08E-05
22.404,5.01E-05
22.408,5.04E-05
22.412,4.93E-05
22.416,5.05E-05
22.42,5.68E-05
22.424,6.39E-05
22.428,6.60E-05
22.432,6.69E-05
22.436,6.52E-05
22.44,6.17E-05
22.444,6.33E-05
22.448,6.35E-05
22.452,5.93E-05
22.456,5.49E-05
22.46,5.42E-05
22.464,5.60E-05
22.468,5.03E-05
22.472,3.71E-05
22.476,4.18E-05
22.48,5.75E-05
22.484,6.77E-05
22.488,7.32E-05
22.492,7.42E-05
22.496,7.17E-05
22.5,7.03E-05
22.504,7.02E-05
22.508,7.01E-05
22.512,7.00E-05
22.516,6.82E-05
22.52,6.50E-05
22.524,6.06E-05
22.528,5.98E-05
22.532,5.79E-05
22.536,4.94E-05
22.54,4.42E-05
22.544,4.89E-05
22.548,5.60E-05
22.552,5.87E-05
22.556,5.57E-05
22.56,5.32E-05
22.564,5.20E-05
22.568,5.37E-05
22.572,5.64E-05
22.576,5.50E-05
22.58,5.47E-05
22.584,5.28E-05
22.588,5.56E-05
22.592,6.92E-05
22.596,8.99E-05
22.6,1.13E-04
22.604,1.29E-04
22.608,1.36E-04
22.612,1.47E-04
22.616,1.58E-04
22.62,1.63E-04
22.624,1.58E-04
22.628,1.47E-04
22.632,1.39E-04
22.636,1.37E-04
22.64,1.34E-04
22.644,1.27E-04
22.648,1.17E-04
22.652,1.03E-04
22.656,9.29E-05
22.66,9.34E-05
22.664,9.46E-05
22.668,8.97E-05
22.672,8.48E-05
22.676,8.47E-05
22.68,8.54E-05
22.684,8.81E-05
22.688,9.05E-05
22.692,9.27E-05
22.696,8.89E-05
22.7,8.33E-05
22.704,7.83E-05
22.708,7.32E-05
22.712,6.97E-05
22.716,6.94E-05
22.72,6.88E-05
22.724,6.39E-05
22.728,5.73E-05
22.732,5.28E-05
22.736,5.07E-05
22.74,5.08E-05
22.744,4.87E-05
22.748,4.64E-05
22.752,4.69E-05
22.756,5.05E-05
22.76,5.63E-05
22.764,5.45E-05
22.768,4.78E-05
22.772,4.25E-05
22.776,3.64E-05
22.78,3.07E-05
22.784,3.32E-05
22.788,3.68E-05
22.792,3.76E-05
22.796,3.35E-05
22.8,2.57E-05
22.804,3.37E-05
22.808,5.31E-05
22.812,7.47E-05
22.816,8.98E-05
22.82,9.78E-05
22.824,1.08E-04
22.828,1.15E-04
22.832,1.12E-04
22.836,1.04E-04
22.84,9.39E-05
22.844,8.33E-05
22.848,6.92E-05
22.852,5.19E-05
22.856,3.93E-05
22.86,3.57E-05
22.864,3.64E-05
22.868,3.76E-05
22.872,3.43E-05
22.876,2.77E-05
22.88,2.22E-05
22.884,2.15E-05
22.888,2.31E-05
22.892,2.62E-05
22.896,2.73E-05
22.9,2.55E-05
22.904,2.47E-05
22.908,2.13E-05
22.912,1.57E-05
22.916,1.02E-05
22.92,-2.40E-08
22.924,-1.19E-05
22.928,-9.30E-06
22.932,-2.62E-06
22.936,-6.90E-06
22.94,-1.42E-05
22.944,-1.88E-05
22.948,-1.60E-05
22.952,-1.30E-05
22.956,-1.25E-05
22.96,-1.58E-05
22.964,-2.12E-05
22.968,-2.26E-05
22.972,-2.13E-05
22.976,-2.58E-05
22.98,-2.86E-05
22.984,-3.00E-05
22.988,-2.97E-05
22.992,-3.12E-05
22.996,-3.77E-05
23,-4.01E-05
23.004,-3.01E-05
23.008,-1.63E-05
23.012,-1.09E-05
23.016,-1.03E-05
23.02,-1.47E-05
23.024,-2.51E-05
23.028,-2.89E-05
23.032,-2.73E-05
23.036,-2.60E-05
23.04,-3.50E-05
23.044,-4.92E-05
23.048,-4.36E-05
23.052,-1.77E-05
23.056,-6.44E-06
23.06,-7.43E-06
23.064,-1.17E-05
23.068,-1.73E-05
23.072,-2.01E-05
23.076,-2.19E-05
23.08,-2.39E-05
23.084,-2.66E-05
23.088,-2.87E-05
23.092,-3.02E-05
23.096,-3.11E-05
23.1,-3.12E-05
23.104,-3.69E-05
23.108,-4.33E-05
23.112,-4.37E-05
23.116,-4.52E-05
23.12,-3.62E-05
23.124,-2.13E-05
23.128,-1.08E-05
23.132,-8.53E-06
23.136,-1.11E-05
23.14,-1.25E-05
23.144,-1.61E-05
23.148,-1.82E-05
23.152,-1.54E-05
23.156,-1.43E-05
23.16,-1.44E-05
23.164,-1.46E-05
23.168,-1.67E-05
23.172,-1.90E-05
23.176,-2.05E-05
23.18,-2.35E-05
23.184,-3.47E-05
23.188,-4.26E-05
23.192,-3.35E-05
23.196,-2.28E-05
23.2,-1.59E-05
23.204,-5.55E-06
23.208,3.56E-06
23.212,4.42E-06
23.216,1.18E-06
23.22,-2.26E-06
23.224,-4.52E-06
23.228,-3.22E-06
23.232,5.05E-07
23.236,4.04E-06
23.24,6.56E-06
23.244,1.75E-06
23.248,-8.51E-06
23.252,-7.72E-06
23.256,4.90E-06
23.26,1.28E-05
23.264,1.50E-05
23.268,1.16E-05
23.272,1.07E-05
23.276,2.07E-05
23.28,3.13E-05
23.284,3.59E-05
23.288,3.37E-05
23.292,2.80E-05
23.296,2.35E-05
23.3,2.16E-05
23.304,1.98E-05
23.308,1.79E-05
23.312,1.63E-05
23.316,1.59E-05
23.32,1.53E-05
23.324,1.59E-05
23.328,1.20E-05
23.332,8.34E-06
23.336,1.55E-05
23.34,2.51E-05
23.344,3.42E-05
23.348,3.47E-05
23.352,3.13E-05
23.356,3.37E-05
23.36,4.06E-05
23.364,4.67E-05
23.368,5.15E-05
23.372,5.43E-05
23.376,5.50E-05
23.38,5.25E-05
23.384,4.97E-05
23.388,4.83E-05
23.392,4.60E-05
23.396,3.75E-05
23.4,2.46E-05
23.404,2.38E-05
23.408,3.25E-05
23.412,3.47E-05
23.416,3.28E-05
23.42,4.19E-05
23.424,5.47E-05
23.428,6.94E-05
23.432,9.26E-05
23.436,1.14E-04
23.44,1.25E-04
23.444,1.26E-04
23.448,1.22E-04
23.452,1.14E-04
23.456,1.05E-04
23.46,9.43E-05
23.464,8.01E-05
23.468,5.92E-05
23.472,4.48E-05
23.476,4.56E-05
23.48,4.99E-05
23.484,4.51E-05
23.488,3.60E-05
23.492,3.45E-05
23.496,3.93E-05
23.5,4.48E-05
23.504,4.70E-05
23.508,4.66E-05
23.512,4.32E-05
23.516,4.07E-05
23.52,3.84E-05
23.524,3.60E-05
23.528,3.51E-05
23.532,3.66E-05
23.536,3.47E-05
23.54,2.74E-05
23.544,1.77E-05
23.548,2.25E-05
23.552,3.57E-05
23.556,3.95E-05
23.56,3.70E-05
23.564,4.00E-05
23.568,5.03E-05
23.572,5.73E-05
23.576,5.83E-05
23.58,5.68E-05
23.584,5.47E-05
23.588,5.18E-05
23.592,5.14E-05
23.596,4.96E-05
23.6,4.56E-05
23.604,4.28E-05
23.608,3.94E-05
23.612,3.26E-05
23.616,3.13E-05
23.62,3.73E-05
23.624,3.88E-05
23.628,2.93E-05
23.632,2.26E-05
23.636,2.71E-05
23.64,3.38E-05
23.644,4.00E-05
23.648,4.47E-05
23.652,4.75E-05
23.656,4.92E-05
23.66,4.90E-05
23.664,4.62E-05
23.668,4.39E-05
23.672,4.08E-05
23.676,3.61E-05
23.68,3.39E-05
23.684,3.44E-05
23.688,3.32E-05
23.692,2.49E-05
23.696,1.90E-05
23.7,2.38E-05
23.704,3.05E-05
23.708,3.37E-05
23.712,3.56E-05
23.716,3.69E-05
23.72,3.63E-05
23.724,2.57E-05
23.728,1.30E-05
23.732,1.35E-05
23.736,2.27E-05
23.74,2.93E-05
23.744,3.01E-05
23.748,2.82E-05
23.752,2.30E-05
23.756,1.72E-05
23.76,1.17E-05
23.764,7.12E-06
23.768,8.44E-06
23.772,6.39E-06
23.776,-3.75E-06
23.78,-4.88E-06
23.784,1.63E-06
23.788,8.97E-06
23.792,1.34E-05
23.796,1.43E-05
23.8,1.11E-05
23.804,8.10E-06
23.808,8.73E-06
23.812,1.05E-05
23.816,1.22E-05
23.82,1.24E-05
23.824,1.27E-05
23.828,1.14E-05
23.832,1.02E-05
23.836,6.59E-06
23.84,-8.65E-07
23.844,-1.14E-05
23.848,-1.31E-05
23.852,-3.99E-06
23.856,9.26E-06
23.86,1.83E-05
23.864,2.07E-05
23.868,2.03E-05
23.872,1.72E-05
23.876,1.27E-05
23.88,7.04E-06
23.884,3.27E-06
23.888,6.56E-06
23.892,1.63E-05
23.896,2.76E-05
23.9,3.73E-05
23.904,4.07E-05
23.908,3.35E-05
23.912,2.26E-05
23.916,1.94E-05
23.92,2.44E-05
23.924,3.43E-05
23.928,4.15E-05
23.932,4.22E-05
23.936,3.96E-05
23.94,3.69E-05
23.944,3.70E-05
23.948,3.91E-05
23.952,3.99E-05
23.956,3.94E-05
23.96,3.89E-05
23.964,3.77E-05
23.968,3.55E-05
23.972,3.36E-05
23.976,3.11E-05
23.98,2.85E-05
23.984,2.82E-05
23.988,2.99E-05
23.992,2.76E-05
23.996,2.10E-05
24,2.22E-05
24.004,3.51E-05
24.008,4.68E-05
24.012,5.09E-05
24.016,5.20E-05
24.02,4.64E-05
24.024,3.93E-05
24.028,3.56E-05
24.032,3.22E-05
24.036,3.06E-05
24.04,3.52E-05
24.044,4.75E-05
24.048,6.58E-05
24.052,8.53E-05
24.056,9.73E-05
24.06,1.02E-04
24.064,1.01E-04
24.068,9.53E-05
24.072,8.38E-05
24.076,6.46E-05
24.08,4.46E-05
24.084,4.06E-05
24.088,5.02E-05
24.092,5.78E-05
24.096,5.77E-05
24.1,5.31E-05
24.104,4.93E-05
24.108,4.51E-05
24.112,4.05E-05
24.116,3.72E-05
24.12,3.41E-05
24.124,3.19E-05
24.128,3.08E-05
24.132,2.65E-05
24.136,2.20E-05
24.14,2.19E-05
24.144,2.51E-05
24.148,2.71E-05
24.152,2.87E-05
24.156,3.18E-05
24.16,3.18E-05
24.164,3.17E-05
24.168,3.71E-05
24.172,4.65E-05
24.176,5.49E-05
24.18,5.74E-05
24.184,5.43E-05
24.188,4.68E-05
24.192,4.14E-05
24.196,3.94E-05
24.2,3.62E-05
24.204,3.33E-05
24.208,2.95E-05
24.212,2.76E-05
24.216,2.87E-05
24.22,2.96E-05
24.224,2.82E-05
24.228,2.14E-05
24.232,1.32E-05
24.236,9.57E-06
24.24,9.88E-06
24.244,1.16E-05
24.248,1.62E-05
24.252,1.80E-05
24.256,1.83E-05
24.26,1.83E-05
24.264,1.75E-05
24.268,1.40E-05
24.272,1.05E-05
24.276,1.39E-05
24.28,1.68E-05
24.284,1.28E-05
24.288,1.02E-05
24.292,1.27E-05
24.296,1.72E-05
24.3,1.90E-05
24.304,1.94E-05
24.308,2.01E-05
24.312,1.95E-05
24.316,1.86E-05
24.32,2.01E-05
24.324,2.14E-05
24.328,2.16E-05
24.332,2.20E-05
24.336,2.21E-05
24.34,1.68E-05
24.344,2.57E-06
24.348,-1.33E-05
24.352,-1.19E-05
24.356,9.23E-06
24.36,2.86E-05
24.364,3.94E-05
24.368,4.25E-05
24.372,4.16E-05
24.376,4.19E-05
24.38,4.07E-05
24.384,3.63E-05
24.388,3.23E-05
24.392,2.89E-05
24.396,2.71E-05
24.4,2.64E-05
24.404,2.51E-05
24.408,2.61E-05
24.412,2.56E-05
24.416,2.24E-05
24.42,1.84E-05
24.424,1.74E-05
24.428,1.98E-05
24.432,2.38E-05
24.436,2.74E-05
24.44,2.98E-05
24.444,3.25E-05
24.448,3.36E-05
24.452,3.56E-05
24.456,3.60E-05
24.46,3.66E-05
24.464,3.91E-05
24.468,3.69E-05
24.472,3.11E-05
24.476,2.73E-05
24.48,2.42E-05
24.484,2.32E-05
24.488,2.70E-05
24.492,3.41E-05
24.496,3.78E-05
24.5,3.51E-05
24.504,3.08E-05
24.508,3.20E-05
24.512,3.84E-05
24.516,3.98E-05
24.52,3.63E-05
24.524,3.22E-05
24.528,2.95E-05
24.532,3.09E-05
24.536,3.16E-05
24.54,3.28E-05
24.544,3.17E-05
24.548,3.12E-05
24.552,3.10E-05
24.556,3.10E-05
24.56,2.92E-05
24.564,2.54E-05
24.568,2.16E-05
24.572,1.82E-05
24.576,1.71E-05
24.58,2.03E-05
24.584,2.75E-05
24.588,3.56E-05
24.592,4.09E-05
24.596,4.26E-05
24.6,4.38E-05
24.604,4.41E-05
24.608,4.26E-05
24.612,4.06E-05
24.616,3.98E-05
24.62,3.87E-05
24.624,3.75E-05
24.628,3.44E-05
24.632,2.87E-05
24.636,2.38E-05
24.64,2.21E-05
24.644,2.28E-05
24.648,2.40E-05
24.652,2.45E-05
24.656,2.56E-05
24.66,3.05E-05
24.664,4.35E-05
24.668,6.55E-05
24.672,8.89E-05
24.676,1.04E-04
24.68,1.12E-04
24.684,1.16E-04
24.688,1.14E-04
24.692,1.06E-04
24.696,9.52E-05
24.7,8.43E-05
24.704,7.45E-05
24.708,6.16E-05
24.712,5.02E-05
24.716,4.82E-05
24.72,5.10E-05
24.724,4.52E-05
24.728,3.76E-05
24.732,4.03E-05
24.736,4.74E-05
24.74,5.02E-05
24.744,4.85E-05
24.748,4.81E-05
24.752,4.66E-05
24.756,4.24E-05
24.76,3.84E-05
24.764,3.54E-05
24.768,3.55E-05
24.772,3.77E-05
24.776,3.93E-05
24.78,4.11E-05
24.784,4.02E-05
24.788,3.41E-05
24.792,2.88E-05
24.796,2.95E-05
24.8,3.21E-05
24.804,3.21E-05
24.808,2.94E-05
24.812,2.91E-05
24.816,3.09E-05
24.82,3.12E-05
24.824,3.10E-05
24.828,2.84E-05
24.832,2.55E-05
24.836,2.52E-05
24.84,2.43E-05
24.844,2.53E-05
24.848,2.64E-05
24.852,2.63E-05
24.856,2.92E-05
24.86,3.41E-05
24.864,3.76E-05
24.868,3.85E-05
24.872,3.63E-05
24.876,3.35E-05
24.88,3.05E-05
24.884,2.73E-05
24.888,2.66E-05
24.892,2.44E-05
24.896,1.63E-05
24.9,1.05E-05
24.904,1.66E-05
24.908,2.76E-05
24.912,3.51E-05
24.916,3.38E-05
24.92,2.81E-05
24.924,2.45E-05
24.928,2.54E-05
24.932,2.82E-05
24.936,3.13E-05
24.94,3.44E-05
24.944,3.47E-05
24.948,3.43E-05
24.952,3.25E-05
24.956,3.11E-05
24.96,3.24E-05
24.964,3.50E-05
24.968,3.63E-05
24.972,3.70E-05
24.976,3.89E-05
24.98,4.17E-05
24.984,4.57E-05
24.988,4.82E-05
24.992,4.97E-05
24.996,4.93E-05
25,4.90E-05
25.004,5.18E-05
25.008,5.40E-05
25.012,5.32E-05
25.016,5.09E-05
25.02,4.77E-05
25.024,4.14E-05
25.028,4.05E-05
25.032,4.79E-05
25.036,5.65E-05
25.04,6.15E-05
25.044,6.38E-05
25.048,6.35E-05
25.052,5.98E-05
25.056,5.76E-05
25.06,5.88E-05
25.064,5.91E-05
25.068,5.67E-05
25.072,5.32E-05
25.076,5.01E-05
25.08,4.51E-05
25.084,4.19E-05
25.088,4.25E-05
25.092,4.75E-05
25.096,5.41E-05
25.1,5.44E-05
25.104,5.13E-05
25.108,4.78E-05
25.112,4.63E-05
25.116,4.59E-05
25.12,4.42E-05
25.124,4.29E-05
25.128,4.45E-05
25.132,4.48E-05
25.136,4.10E-05
25.14,3.76E-05
25.144,3.78E-05
25.148,4.15E-05
25.152,4.55E-05
25.156,4.73E-05
25.16,4.53E-05
25.164,4.16E-05
25.168,3.73E-05
25.172,3.54E-05
25.176,3.41E-05
25.18,3.42E-05
25.184,3.46E-05
25.188,3.26E-05
25.192,2.79E-05
25.196,2.46E-05
25.2,2.45E-05
25.204,2.61E-05
25.208,3.30E-05
25.212,4.08E-05
25.216,4.44E-05
25.22,4.58E-05
25.224,4.76E-05
25.228,4.96E-05
25.232,4.91E-05
25.236,4.46E-05
25.24,4.15E-05
25.244,3.92E-05
25.248,3.72E-05
25.252,3.72E-05
25.256,3.70E-05
25.26,3.57E-05
25.264,3.35E-05
25.268,3.18E-05
25.272,2.92E-05
25.276,2.40E-05
25.28,1.79E-05
25.284,1.32E-05
25.288,1.17E-05
25.292,1.93E-05
25.296,3.53E-05
25.3,5.27E-05
25.304,6.86E-05
25.308,8.34E-05
25.312,9.45E-05
25.316,9.83E-05
25.32,9.52E-05
25.324,8.57E-05
25.328,7.46E-05
25.332,6.23E-05
25.336,4.82E-05
25.34,3.53E-05
25.344,2.63E-05
25.348,1.95E-05
25.352,1.35E-05
25.356,8.05E-06
25.36,3.46E-06
25.364,-1.44E-07
25.368,-4.04E-06
25.372,-5.48E-06
25.376,-4.74E-06
25.38,-4.98E-06
25.384,-4.69E-06
25.388,-2.43E-06
25.392,-2.19E-06
25.396,-2.04E-06
25.4,-1.83E-06
25.404,-1.92E-06
25.408,-1.61E-06
25.412,-1.71E-06
25.416,-3.99E-06
25.42,-6.80E-06
25.424,-1.07E-05
25.428,-1.37E-05
25.432,-1.82E-05
25.436,-2.45E-05
25.44,-2.78E-05
25.444,-2.63E-05
25.448,-2.40E-05
25.452,-2.24E-05
25.456,-2.20E-05
25.46,-2.67E-05
25.464,-2.90E-05
25.468,-2.76E-05
25.472,-2.60E-05
25.476,-2.73E-05
25.48,-3.24E-05
25.484,-3.74E-05
25.488,-3.90E-05
25.492,-3.88E-05
25.496,-3.96E-05
25.5,-4.09E-05
25.504,-4.30E-05
25.508,-4.47E-05
25.512,-4.61E-05
25.516,-4.74E-05
25.52,-4.73E-05
25.524,-4.42E-05
25.528,-4.09E-05
25.532,-3.76E-05
25.536,-3.69E-05
25.54,-3.75E-05
25.544,-3.76E-05
25.548,-3.65E-05
25.552,-3.33E-05
25.556,-3.26E-05
25.56,-3.32E-05
25.564,-3.39E-05
25.568,-3.16E-05
25.572,-3.11E-05
25.576,-3.07E-05
25.58,-3.09E-05
25.584,-3.53E-05
25.588,-3.77E-05
25.592,-3.44E-05
25.596,-3.22E-05
25.6,-2.94E-05
25.604,-2.76E-05
25.608,-2.59E-05
25.612,-2.43E-05
25.616,-2.32E-05
25.62,-2.19E-05
25.624,-2.14E-05
25.628,-2.14E-05
25.632,-2.29E-05
25.636,-2.38E-05
25.64,-2.47E-05
25.644,-2.42E-05
25.648,-2.16E-05
25.652,-1.95E-05
25.656,-2.10E-05
25.66,-2.25E-05
25.664,-1.95E-05
25.668,-1.53E-05
25.672,-1.35E-05
25.676,-1.23E-05
25.68,-1.12E-05
25.684,-1.18E-05
25.688,-1.50E-05
25.692,-1.99E-05
25.696,-2.40E-05
25.7,-2.54E-05
25.704,-2.32E-05
25.708,-2.40E-05
25.712,-2.55E-05
25.716,-2.91E-05
25.72,-3.44E-05
25.724,-3.80E-05
25.728,-3.82E-05
25.732,-3.19E-05
25.736,-2.41E-05
25.74,-1.87E-05
25.744,-1.31E-05
25.748,-1.16E-05
25.752,-1.50E-05
25.756,-1.79E-05
25.76,-1.96E-05
25.764,-1.98E-05
25.768,-1.63E-05
25.772,-1.22E-05
25.776,-1.06E-05
25.78,-1.04E-05
25.784,-1.12E-05
25.788,-1.26E-05
25.792,-1.46E-05
25.796,-1.55E-05
25.8,-1.33E-05
25.804,-1.24E-05
25.808,-1.38E-05
25.812,-1.36E-05
25.816,-1.23E-05
25.82,-1.44E-05
25.824,-1.68E-05
25.828,-1.84E-05
25.832,-1.63E-05
25.836,-8.92E-06
25.84,-3.44E-06
25.844,-3.82E-06
25.848,-5.31E-06
25.852,-6.51E-06
25.856,-6.71E-06
25.86,-9.30E-06
25.864,-1.56E-05
25.868,-1.53E-05
25.872,-1.00E-05
25.876,-7.50E-06
25.88,-4.21E-06
25.884,-2.55E-06
25.888,-1.90E-06
25.892,-7.69E-07
25.896,-1.68E-07
25.9,-1.11E-06
25.904,-3.77E-06
25.908,-7.31E-06
25.912,-3.85E-06
25.916,6.71E-06
25.92,2.40E-05
25.924,4.65E-05
25.928,6.67E-05
25.932,7.53E-05
25.936,7.85E-05
25.94,7.63E-05
25.944,6.80E-05
25.948,5.78E-05
25.952,4.58E-05
25.956,3.60E-05
25.96,3.37E-05
25.964,3.19E-05
25.968,2.72E-05
25.972,2.29E-05
25.976,1.67E-05
25.98,1.08E-05
25.984,9.16E-06
25.988,9.62E-06
25.992,1.05E-05
25.996,1.01E-05
26,6.27E-06
26.004,3.56E-06
26.008,2.79E-06
26.012,3.41E-06
26.016,7.60E-06
26.02,9.64E-06
26.024,4.47E-06
26.028,1.11E-06
26.032,8.75E-06
26.036,1.71E-05
26.04,2.08E-05
26.044,2.04E-05
26.048,1.74E-05
26.052,1.28E-05
26.056,1.13E-05
26.06,1.45E-05
26.064,1.97E-05
26.068,2.09E-05
26.072,1.90E-05
26.076,1.73E-05
26.08,1.44E-05
26.084,8.27E-06
26.088,4.54E-06
26.092,1.09E-05
26.096,1.95E-05
26.1,2.41E-05
26.104,2.68E-05
26.108,3.09E-05
26.112,3.12E-05
26.116,2.70E-05
26.12,2.42E-05
26.124,2.49E-05
26.128,2.34E-05
26.132,2.23E-05
26.136,2.19E-05
26.14,1.99E-05
26.144,1.72E-05
26.148,1.50E-05
26.152,1.29E-05
26.156,1.15E-05
26.16,1.18E-05
26.164,1.23E-05
26.168,1.21E-05
26.172,8.85E-06
26.176,6.54E-06
26.18,6.23E-06
26.184,1.20E-05
26.188,1.82E-05
26.192,2.09E-05
26.196,2.17E-05
26.2,2.00E-05
26.204,2.04E-05
26.208,2.13E-05
26.212,2.04E-05
26.216,1.74E-05
26.22,1.35E-05
26.224,1.23E-05
26.228,1.47E-05
26.232,1.86E-05
26.236,1.99E-05
26.24,1.60E-05
26.244,8.63E-06
26.248,8.61E-06
26.252,1.52E-05
26.256,1.90E-05
26.26,2.14E-05
26.264,2.53E-05
26.268,2.72E-05
26.272,2.61E-05
26.276,2.46E-05
26.28,2.45E-05
26.284,2.59E-05
26.288,2.69E-05
26.292,2.53E-05
26.296,2.22E-05
26.3,1.98E-05
26.304,1.75E-05
26.308,1.61E-05
26.312,1.69E-05
26.316,2.07E-05
26.32,2.31E-05
26.324,2.42E-05
26.328,2.66E-05
26.332,3.12E-05
26.336,3.52E-05
26.34,3.71E-05
26.344,3.75E-05
26.348,3.63E-05
26.352,3.54E-05
26.356,3.44E-05
26.36,3.09E-05
26.364,2.72E-05
26.368,2.18E-05
26.372,1.87E-05
26.376,1.99E-05
26.38,2.07E-05
26.384,2.02E-05
26.388,2.43E-05
26.392,2.94E-05
26.396,3.08E-05
26.4,3.03E-05
26.404,2.82E-05
26.408,2.70E-05
26.412,2.77E-05
26.416,3.02E-05
26.42,3.14E-05
26.424,3.17E-05
26.428,3.02E-05
26.432,2.98E-05
26.436,3.08E-05
26.44,3.14E-05
26.444,3.14E-05
26.448,2.97E-05
26.452,2.98E-05
26.456,2.95E-05
26.46,2.93E-05
26.464,2.83E-05
26.468,2.53E-05
26.472,2.44E-05
26.476,2.84E-05
26.48,3.43E-05
26.484,3.74E-05
26.488,3.81E-05
26.492,3.76E-05
26.496,3.54E-05
26.5,3.33E-05
26.504,3.21E-05
26.508,3.27E-05
26.512,3.73E-05
26.516,3.98E-05
26.52,3.90E-05
26.524,3.54E-05
26.528,3.39E-05
26.532,3.90E-05
26.536,5.38E-05
26.54,6.95E-05
26.544,8.72E-05
26.548,1.04E-04
26.552,1.14E-04
26.556,1.20E-04
26.56,1.19E-04
26.564,1.12E-04
26.568,1.01E-04
26.572,9.04E-05
26.576,8.21E-05
26.58,7.70E-05
26.584,7.53E-05
26.588,7.36E-05
26.592,6.95E-05
26.596,6.31E-05
26.6,5.80E-05
26.604,5.60E-05
26.608,5.38E-05
26.612,5.31E-05
26.616,5.29E-05
26.62,5.12E-05
26.624,4.63E-05
26.628,4.07E-05
26.632,3.73E-05
26.636,3.49E-05
26.64,3.23E-05
26.644,3.33E-05
26.648,3.74E-05
26.652,3.80E-05
26.656,3.75E-05
26.66,3.95E-05
26.664,4.16E-05
26.668,4.24E-05
26.672,3.89E-05
26.676,3.40E-05
26.68,3.20E-05
26.684,3.08E-05
26.688,3.18E-05
26.692,3.51E-05
26.696,3.57E-05
26.7,3.48E-05
26.704,3.51E-05
26.708,3.61E-05
26.712,3.65E-05
26.716,3.60E-05
26.72,3.95E-05
26.724,4.37E-05
26.728,4.87E-05
26.732,5.15E-05
26.736,5.26E-05
26.74,5.32E-05
26.744,5.39E-05
26.748,5.55E-05
26.752,5.53E-05
26.756,5.30E-05
26.76,4.95E-05
26.764,4.69E-05
26.768,4.68E-05
26.772,4.47E-05
26.776,4.25E-05
26.78,4.22E-05
26.784,3.90E-05
26.788,2.91E-05
26.792,1.98E-05
26.796,1.70E-05
26.8,2.30E-05
26.804,3.00E-05
26.808,3.29E-05
26.812,3.31E-05
26.816,3.27E-05
26.82,3.35E-05
26.824,3.70E-05
26.828,4.01E-05
26.832,4.04E-05
26.836,4.02E-05
26.84,3.98E-05
26.844,3.93E-05
26.848,3.83E-05
26.852,3.76E-05
26.856,3.81E-05
26.86,3.73E-05
26.864,3.58E-05
26.868,3.38E-05
26.872,3.12E-05
26.876,3.26E-05
26.88,3.82E-05
26.884,4.12E-05
26.888,4.25E-05
26.892,4.71E-05
26.896,4.84E-05
26.9,4.46E-05
26.904,4.13E-05
26.908,3.99E-05
26.912,3.81E-05
26.916,3.69E-05
26.92,3.68E-05
26.924,3.64E-05
26.928,3.57E-05
26.932,3.61E-05
26.936,3.75E-05
26.94,3.74E-05
26.944,3.47E-05
26.948,3.35E-05
26.952,3.17E-05
26.956,2.88E-05
26.96,3.11E-05
26.964,3.55E-05
26.968,4.16E-05
26.972,4.88E-05
26.976,5.42E-05
26.98,5.72E-05
26.984,5.79E-05
26.988,5.65E-05
26.992,5.51E-05
26.996,5.34E-05
27,4.95E-05
27.004,4.63E-05
27.008,4.41E-05
27.012,4.01E-05
27.016,3.89E-05
27.02,3.83E-05
27.024,3.51E-05
27.028,3.51E-05
27.032,3.76E-05
27.036,3.82E-05
27.04,3.95E-05
27.044,4.27E-05
27.048,4.62E-05
27.052,4.99E-05
27.056,5.17E-05
27.06,5.29E-05
27.064,5.55E-05
27.068,5.80E-05
27.072,5.86E-05
27.076,5.88E-05
27.08,6.34E-05
27.084,7.42E-05
27.088,8.28E-05
27.092,8.53E-05
27.096,8.88E-05
27.1,9.48E-05
27.104,9.78E-05
27.108,9.67E-05
27.112,9.42E-05
27.116,9.14E-05
27.12,8.82E-05
27.124,8.66E-05
27.128,8.70E-05
27.132,8.71E-05
27.136,8.52E-05
27.14,8.08E-05
27.144,7.37E-05
27.148,6.65E-05
27.152,6.15E-05
27.156,5.79E-05
27.16,5.95E-05
27.164,6.85E-05
27.168,8.38E-05
27.172,1.08E-04
27.176,1.30E-04
27.18,1.47E-04
27.184,1.58E-04
27.188,1.61E-04
27.192,1.53E-04
27.196,1.39E-04
27.2,1.27E-04
27.204,1.20E-04
27.208,1.13E-04
27.212,1.06E-04
27.216,1.02E-04
27.22,9.83E-05
27.224,9.42E-05
27.228,8.99E-05
27.232,8.57E-05
27.236,8.01E-05
27.24,7.29E-05
27.244,6.60E-05
27.248,6.55E-05
27.252,7.48E-05
27.256,8.56E-05
27.26,8.93E-05
27.264,9.04E-05
27.268,8.72E-05
27.272,8.27E-05
27.276,8.05E-05
27.28,8.08E-05
27.284,8.13E-05
27.288,8.08E-05
27.292,7.82E-05
27.296,7.55E-05
27.3,7.37E-05
27.304,7.20E-05
27.308,6.85E-05
27.312,6.34E-05
27.316,5.89E-05
27.32,5.84E-05
27.324,6.05E-05
27.328,6.41E-05
27.332,6.65E-05
27.336,6.59E-05
27.34,6.74E-05
27.344,6.95E-05
27.348,6.88E-05
27.352,6.69E-05
27.356,6.62E-05
27.36,6.60E-05
27.364,6.83E-05
27.368,7.02E-05
27.372,6.74E-05
27.376,6.33E-05
27.38,6.02E-05
27.384,5.99E-05
27.388,5.93E-05
27.392,5.83E-05
27.396,6.11E-05
27.4,6.71E-05
27.404,7.51E-05
27.408,8.14E-05
27.412,8.29E-05
27.416,8.31E-05
27.42,8.22E-05
27.424,8.01E-05
27.428,7.85E-05
27.432,7.81E-05
27.436,7.64E-05
27.44,7.53E-05
27.444,7.49E-05
27.448,7.25E-05
27.452,6.89E-05
27.456,6.79E-05
27.46,6.67E-05
27.464,6.17E-05
27.468,5.52E-05
27.472,5.46E-05
27.476,6.33E-05
27.48,7.24E-05
27.484,7.68E-05
27.488,7.68E-05
27.492,7.61E-05
27.496,7.86E-05
27.5,8.48E-05
27.504,8.76E-05
27.508,8.71E-05
27.512,8.59E-05
27.516,8.36E-05
27.52,8.14E-05
27.524,8.16E-05
27.528,8.10E-05
27.532,7.97E-05
27.536,8.06E-05
27.54,8.08E-05
27.544,8.24E-05
27.548,8.24E-05
27.552,8.09E-05
27.556,8.12E-05
27.56,8.28E-05
27.564,8.67E-05
27.568,9.21E-05
27.572,9.66E-05
27.576,9.88E-05
27.58,9.66E-05
27.584,9.35E-05
27.588,9.17E-05
27.592,9.36E-05
27.596,9.59E-05
27.6,9.58E-05
27.604,9.37E-05
27.608,9.18E-05
27.612,9.14E-05
27.616,8.93E-05
27.62,8.36E-05
27.624,7.87E-05
27.628,7.80E-05
27.632,8.11E-05
27.636,8.23E-05
27.64,8.39E-05
27.644,8.81E-05
27.648,9.03E-05
27.652,9.18E-05
27.656,9.41E-05
27.66,9.44E-05
27.664,9.22E-05
27.668,9.16E-05
27.672,9.14E-05
27.676,9.14E-05
27.68,9.07E-05
27.684,9.00E-05
27.688,8.99E-05
27.692,9.08E-05
27.696,9.59E-05
27.7,1.01E-04
27.704,1.03E-04
27.708,1.03E-04
27.712,1.03E-04
27.716,1.01E-04
27.72,9.99E-05
27.724,9.99E-05
27.728,1.01E-04
27.732,1.00E-04
27.736,1.02E-04
27.74,1.02E-04
27.744,9.91E-05
27.748,9.82E-05
27.752,9.74E-05
27.756,9.60E-05
27.76,9.41E-05
27.764,9.25E-05
27.768,9.13E-05
27.772,9.13E-05
27.776,9.21E-05
27.78,9.10E-05
27.784,8.75E-05
27.788,8.63E-05
27.792,8.94E-05
27.796,9.50E-05
27.8,1.06E-04
27.804,1.22E-04
27.808,1.42E-04
27.812,1.58E-04
27.816,1.69E-04
27.82,1.74E-04
27.824,1.71E-04
27.828,1.62E-04
27.832,1.51E-04
27.836,1.41E-04
27.84,1.32E-04
27.844,1.25E-04
27.848,1.16E-04
27.852,1.05E-04
27.856,9.52E-05
27.86,9.49E-05
27.864,9.73E-05
27.868,9.71E-05
27.872,9.53E-05
27.876,9.65E-05
27.88,1.01E-04
27.884,1.04E-04
27.888,1.04E-04
27.892,1.03E-04
27.896,1.02E-04
27.9,1.01E-04
27.904,1.00E-04
27.908,9.82E-05
27.912,9.51E-05
27.916,9.09E-05
27.92,8.86E-05
27.924,8.88E-05
27.928,8.96E-05
27.932,8.68E-05
27.936,8.10E-05
27.94,7.53E-05
27.944,7.39E-05
27.948,7.96E-05
27.952,8.62E-05
27.956,9.04E-05
27.96,9.02E-05
27.964,8.67E-05
27.968,8.35E-05
27.972,8.52E-05
27.976,8.81E-05
27.98,8.96E-05
27.984,8.91E-05
27.988,8.80E-05
27.992,8.99E-05
27.996,9.39E-05
28,9.40E-05
28.004,9.12E-05
28.008,8.82E-05
28.012,8.56E-05
28.016,8.39E-05
28.02,8.47E-05
28.024,8.50E-05
28.028,8.53E-05
28.032,8.83E-05
28.036,9.30E-05
28.04,9.55E-05
28.044,9.50E-05
28.048,9.48E-05
28.052,9.46E-05
28.056,9.31E-05
28.06,9.24E-05
28.064,9.30E-05
28.068,9.28E-05
28.072,9.31E-05
28.076,9.36E-05
28.08,9.34E-05
28.084,9.46E-05
28.088,9.22E-05
28.092,8.64E-05
28.096,8.21E-05
28.1,8.21E-05
28.104,8.60E-05
28.108,9.00E-05
28.112,9.42E-05
28.116,9.87E-05
28.12,1.01E-04
28.124,1.02E-04
28.128,1.04E-04
28.132,1.04E-04
28.136,1.02E-04
28.14,9.97E-05
28.144,9.55E-05
28.148,9.23E-05
28.152,9.36E-05
28.156,9.69E-05
28.16,9.97E-05
28.164,9.94E-05
28.168,9.49E-05
28.172,9.31E-05
28.176,9.63E-05
28.18,9.80E-05
28.184,9.66E-05
28.188,9.52E-05
28.192,9.60E-05
28.196,1.01E-04
28.2,1.03E-04
28.204,1.01E-04
28.208,9.80E-05
28.212,9.83E-05
28.216,1.01E-04
28.22,1.06E-04
28.224,1.05E-04
28.228,1.01E-04
28.232,9.79E-05
28.236,9.67E-05
28.24,9.76E-05
28.244,9.82E-05
28.248,9.67E-05
28.252,9.31E-05
28.256,8.90E-05
28.26,8.56E-05
28.264,8.48E-05
28.268,8.64E-05
28.272,9.11E-05
28.276,9.29E-05
28.28,9.38E-05
28.284,9.79E-05
28.288,1.05E-04
28.292,1.09E-04
28.296,1.10E-04
28.3,1.09E-04
28.304,1.08E-04
28.308,1.09E-04
28.312,1.09E-04
28.316,1.07E-04
28.32,1.05E-04
28.324,1.04E-04
28.328,1.03E-04
28.332,1.04E-04
28.336,1.01E-04
28.34,9.65E-05
28.344,9.80E-05
28.348,1.03E-04
28.352,1.08E-04
28.356,1.12E-04
28.36,1.17E-04
28.364,1.24E-04
28.368,1.27E-04
28.372,1.28E-04
28.376,1.29E-04
28.38,1.26E-04
28.384,1.22E-04
28.388,1.21E-04
28.392,1.20E-04
28.396,1.20E-04
28.4,1.20E-04
28.404,1.20E-04
28.408,1.17E-04
28.412,1.14E-04
28.416,1.10E-04
28.42,1.05E-04
28.424,1.03E-04
28.428,1.07E-04
28.432,1.15E-04
28.436,1.29E-04
28.44,1.49E-04
28.444,1.71E-04
28.448,1.86E-04
28.452,1.93E-04
28.456,1.95E-04
28.46,1.93E-04
28.464,1.86E-04
28.468,1.77E-04
28.472,1.65E-04
28.476,1.56E-04
28.48,1.49E-04
28.484,1.41E-04
28.488,1.35E-04
28.492,1.29E-04
28.496,1.24E-04
28.5,1.22E-04
28.504,1.21E-04
28.508,1.20E-04
28.512,1.20E-04
28.516,1.18E-04
28.52,1.15E-04
28.524,1.10E-04
28.528,1.07E-04
28.532,1.11E-04
28.536,1.19E-04
28.54,1.27E-04
28.544,1.33E-04
28.548,1.35E-04
28.552,1.34E-04
28.556,1.34E-04
28.56,1.32E-04
28.564,1.30E-04
28.568,1.27E-04
28.572,1.25E-04
28.576,1.25E-04
28.58,1.27E-04
28.584,1.25E-04
28.588,1.21E-04
28.592,1.18E-04
28.596,1.14E-04
28.6,1.12E-04
28.604,1.11E-04
28.608,1.12E-04
28.612,1.13E-04
28.616,1.12E-04
28.62,1.13E-04
28.624,1.14E-04
28.628,1.14E-04
28.632,1.11E-04
28.636,1.07E-04
28.64,1.04E-04
28.644,1.04E-04
28.648,1.06E-04
28.652,1.09E-04
28.656,1.13E-04
28.66,1.14E-04
28.664,1.15E-04
28.668,1.15E-04
28.672,1.13E-04
28.676,1.11E-04
28.68,1.08E-04
28.684,1.07E-04
28.688,1.07E-04
28.692,1.10E-04
28.696,1.12E-04
28.7,1.11E-04
28.704,1.10E-04
28.708,1.09E-04
28.712,1.07E-04
28.716,1.06E-04
28.72,1.03E-04
28.724,1.03E-04
28.728,1.07E-04
28.732,1.14E-04
28.736,1.17E-04
28.74,1.18E-04
28.744,1.17E-04
28.748,1.17E-04
28.752,1.17E-04
28.756,1.17E-04
28.76,1.17E-04
28.764,1.15E-04
28.768,1.15E-04
28.772,1.14E-04
28.776,1.10E-04
28.78,1.05E-04
28.784,1.02E-04
28.788,9.91E-05
28.792,9.83E-05
28.796,9.63E-05
28.8,9.66E-05
28.804,1.00E-04
28.808,1.05E-04
28.812,1.11E-04
28.816,1.15E-04
28.82,1.19E-04
28.824,1.23E-04
28.828,1.26E-04
28.832,1.23E-04
28.836,1.20E-04
28.84,1.17E-04
28.844,1.14E-04
28.848,1.13E-04
28.852,1.13E-04
28.856,1.14E-04
28.86,1.14E-04
28.864,1.09E-04
28.868,1.03E-04
28.872,1.02E-04
28.876,1.05E-04
28.88,1.09E-04
28.884,1.15E-04
28.888,1.27E-04
28.892,1.42E-04
28.896,1.53E-04
28.9,1.56E-04
28.904,1.52E-04
28.908,1.46E-04
28.912,1.39E-04
28.916,1.36E-04
28.92,1.32E-04
28.924,1.30E-04
28.928,1.29E-04
28.932,1.27E-04
28.936,1.29E-04
28.94,1.32E-04
28.944,1.29E-04
28.948,1.25E-04
28.952,1.23E-04
28.956,1.26E-04
28.96,1.28E-04
28.964,1.25E-04
28.968,1.23E-04
28.972,1.21E-04
28.976,1.20E-04
28.98,1.20E-04
28.984,1.24E-04
28.988,1.28E-04
28.992,1.29E-04
28.996,1.29E-04
29,1.27E-04
29.004,1.25E-04
29.008,1.28E-04
29.012,1.31E-04
29.016,1.30E-04
29.02,1.26E-04
29.024,1.24E-04
29.028,1.25E-04
29.032,1.27E-04
29.036,1.30E-04
29.04,1.33E-04
29.044,1.34E-04
29.048,1.35E-04
29.052,1.33E-04
29.056,1.29E-04
29.06,1.23E-04
29.064,1.18E-04
29.068,1.18E-04
29.072,1.29E-04
29.076,1.44E-04
29.08,1.58E-04
29.084,1.74E-04
29.088,1.85E-04
29.092,1.90E-04
29.096,1.92E-04
29.1,1.87E-04
29.104,1.77E-04
29.108,1.64E-04
29.112,1.51E-04
29.116,1.40E-04
29.12,1.33E-04
29.124,1.24E-04
29.128,1.15E-04
29.132,1.10E-04
29.136,1.07E-04
29.14,1.07E-04
29.144,1.13E-04
29.148,1.19E-04
29.152,1.21E-04
29.156,1.20E-04
29.16,1.17E-04
29.164,1.14E-04
29.168,1.10E-04
29.172,1.06E-04
29.176,1.04E-04
29.18,1.01E-04
29.184,1.00E-04
29.188,9.89E-05
29.192,9.32E-05
29.196,8.57E-05
29.2,7.90E-05
29.204,7.79E-05
29.208,7.97E-05
29.212,8.14E-05
29.216,8.78E-05
29.22,9.44E-05
29.224,9.83E-05
29.228,1.00E-04
29.232,1.01E-04
29.236,1.00E-04
29.24,1.02E-04
29.244,1.01E-04
29.248,9.83E-05
29.252,9.44E-05
29.256,9.13E-05
29.26,9.01E-05
29.264,8.88E-05
29.268,8.64E-05
29.272,8.35E-05
29.276,8.11E-05
29.28,7.96E-05
29.284,8.01E-05
29.288,8.31E-05
29.292,8.36E-05
29.296,8.26E-05
29.3,8.29E-05
29.304,8.09E-05
29.308,7.88E-05
29.312,7.80E-05
29.316,7.82E-05
29.32,8.01E-05
29.324,8.08E-05
29.328,7.91E-05
29.332,7.35E-05
29.336,6.78E-05
29.34,6.72E-05
29.344,7.09E-05
29.348,7.63E-05
29.352,7.98E-05
29.356,8.03E-05
29.36,8.06E-05
29.364,8.23E-05
29.368,8.30E-05
29.372,8.22E-05
29.376,8.10E-05
29.38,7.91E-05
29.384,7.67E-05
29.388,7.55E-05
29.392,7.48E-05
29.396,7.56E-05
29.4,7.75E-05
29.404,7.66E-05
29.408,7.36E-05
29.412,7.15E-05
29.416,6.68E-05
29.42,6.50E-05
29.424,6.53E-05
29.428,7.03E-05
29.432,7.91E-05
29.436,8.43E-05
29.44,8.45E-05
29.444,8.34E-05
29.448,8.33E-05
29.452,8.11E-05
29.456,8.05E-05
29.46,8.19E-05
29.464,8.16E-05
29.468,7.78E-05
29.472,7.23E-05
29.476,7.03E-05
29.48,7.18E-05
29.484,7.57E-05
29.488,7.87E-05
29.492,7.92E-05
29.496,8.00E-05
29.5,8.14E-05
29.504,8.30E-05
29.508,8.50E-05
29.512,8.46E-05
29.516,8.24E-05
29.52,7.97E-05
29.524,7.55E-05
29.528,7.08E-05
29.532,6.64E-05
29.536,6.10E-05
29.54,5.78E-05
29.544,5.93E-05
29.548,5.98E-05
29.552,5.66E-05
29.556,5.77E-05
29.56,5.99E-05
29.564,6.17E-05
29.568,6.69E-05
29.572,6.95E-05
29.576,7.04E-05
29.58,6.89E-05
29.584,6.54E-05
29.588,6.39E-05
29.592,6.25E-05
29.596,5.93E-05
29.6,5.72E-05
29.604,5.60E-05
29.608,5.55E-05
29.612,5.28E-05
29.616,4.93E-05
29.62,4.62E-05
29.624,4.39E-05
29.628,4.19E-05
29.632,4.46E-05
29.636,5.32E-05
29.64,6.06E-05
29.644,6.22E-05
29.648,6.09E-05
29.652,6.02E-05
29.656,6.29E-05
29.66,6.55E-05
29.664,6.44E-05
29.668,6.18E-05
29.672,6.14E-05
29.676,6.30E-05
29.68,6.43E-05
29.684,6.38E-05
29.688,6.26E-05
29.692,5.83E-05
29.696,5.22E-05
29.7,4.85E-05
29.704,4.59E-05
29.708,4.23E-05
29.712,4.55E-05
29.716,5.86E-05
29.72,7.69E-05
29.724,9.92E-05
29.728,1.18E-04
29.732,1.33E-04
29.736,1.42E-04
29.74,1.44E-04
29.744,1.39E-04
29.748,1.29E-04
29.752,1.14E-04
29.756,1.01E-04
29.76,8.96E-05
29.764,7.79E-05
29.768,6.90E-05
29.772,6.51E-05
29.776,6.10E-05
29.78,5.84E-05
29.784,5.55E-05
29.788,4.80E-05
29.792,4.09E-05
29.796,4.01E-05
29.8,4.54E-05
29.804,5.07E-05
29.808,5.34E-05
29.812,5.43E-05
29.816,5.28E-05
29.82,5.11E-05
29.824,4.99E-05
29.828,4.86E-05
29.832,4.92E-05
29.836,5.01E-05
29.84,4.90E-05
29.844,4.76E-05
29.848,4.91E-05
29.852,5.27E-05
29.856,5.64E-05
29.86,5.86E-05
29.864,5.71E-05
29.868,5.38E-05
29.872,5.12E-05
29.876,5.14E-05
29.88,5.24E-05
29.884,5.09E-05
29.888,4.67E-05
29.892,4.09E-05
29.896,3.71E-05
29.9,3.95E-05
29.904,4.33E-05
29.908,4.44E-05
29.912,4.63E-05
29.916,5.04E-05
29.92,5.39E-05
29.924,5.74E-05
29.928,5.76E-05
29.932,5.56E-05
29.936,5.33E-05
29.94,5.13E-05
29.944,4.76E-05
29.948,4.76E-05
29.952,4.92E-05
29.956,4.76E-05
29.96,4.30E-05
29.964,3.71E-05
29.968,3.64E-05
29.972,4.05E-05
29.976,4.20E-05
29.98,4.00E-05
29.984,3.66E-05
29.988,3.43E-05
29.992,3.49E-05
29.996,3.61E-05
30,3.38E-05
30.004,3.18E-05
30.008,2.96E-05
30.012,2.77E-05
30.016,2.84E-05
30.02,2.89E-05
30.024,2.86E-05
30.028,2.92E-05
30.032,3.12E-05
30.036,3.23E-05
30.04,3.26E-05
30.044,2.82E-05
30.048,2.30E-05
30.052,2.10E-05
30.056,2.24E-05
30.06,2.82E-05
30.064,3.42E-05
30.068,3.62E-05
30.072,3.84E-05
30.076,3.81E-05
30.08,3.59E-05
30.084,3.50E-05
30.088,3.38E-05
30.092,3.10E-05
30.096,2.91E-05
30.1,2.69E-05
30.104,2.54E-05
30.108,2.55E-05
30.112,2.22E-05
30.116,1.96E-05
30.12,2.08E-05
30.124,2.43E-05
30.128,2.58E-05
30.132,2.61E-05
30.136,2.80E-05
30.14,3.24E-05
30.144,3.62E-05
30.148,3.97E-05
30.152,4.02E-05
30.156,3.84E-05
30.16,3.70E-05
30.164,3.59E-05
30.168,3.45E-05
30.172,3.10E-05
30.176,2.48E-05
30.18,2.14E-05
30.184,2.26E-05
30.188,2.61E-05
30.192,3.01E-05
30.196,3.28E-05
30.2,3.46E-05
30.204,3.70E-05
30.208,4.10E-05
30.212,4.14E-05
30.216,4.03E-05
30.22,3.93E-05
30.224,3.57E-05
30.228,2.98E-05
30.232,2.38E-05
30.236,2.16E-05
30.24,2.08E-05
30.244,2.09E-05
30.248,2.03E-05
30.252,1.44E-05
30.256,1.07E-05
30.26,1.73E-05
30.264,2.41E-05
30.268,2.63E-05
30.272,3.29E-05
30.276,4.23E-05
30.28,4.86E-05
30.284,5.10E-05
30.288,5.12E-05
30.292,5.03E-05
30.296,4.68E-05
30.3,3.95E-05
30.304,3.25E-05
30.308,2.94E-05
30.312,2.54E-05
30.316,1.74E-05
30.32,9.64E-06
30.324,8.97E-06
30.328,1.92E-05
30.332,3.13E-05
30.336,3.66E-05
30.34,3.62E-05
30.344,3.31E-05
