0.0,-0.021088340213498296
0.004,-0.020760403167454776
0.008,-0.020564977594015307
0.012,-0.020516848427078932
0.016,-0.02054882234916953
0.02,-0.020611063314803044
0.024,-0.02066265431992066
0.028,-0.020710879649028735
0.032,-0.020744392165866554
0.036000000000000004,-0.02073811758416306
0.04,-0.020712105716717923
0.044,-0.02069222418771873
0.048,-0.020689868214512054
0.052000000000000005,-0.020749560882595483
0.056,-0.02089962195153498
0.06,-0.02110771689109606
0.064,-0.02132675027768814
0.068,-0.02148349461756086
0.07200000000000001,-0.021536768460683243
0.076,-0.021519699675206304
0.08,-0.021450631195382024
0.084,-0.021349228185323258
0.088,-0.021205970590031615
0.092,-0.0209468375778402
0.096,-0.020688497903565316
0.1,-0.02050391461498514
0.10400000000000001,-0.02043965424374591
0.108,-0.020475666977047956
0.112,-0.020583488812067764
0.116,-0.02074775784187609
0.12,-0.020927100292098558
0.124,-0.021011602800480856
0.128,-0.021018334152499932
0.132,-0.02098184060833938
0.136,-0.020929600508562785
0.14,-0.020878899003533406
0.14400000000000002,-0.02084348728380449
0.148,-0.020862455272172523
0.152,-0.02088719299084262
0.156,-0.020870869462196365
0.16,-0.02077985196668132
0.164,-0.02056754993210831
0.168,-0.020346328856110037
0.17200000000000001,-0.02018064143426912
0.176,-0.02005077442138685
0.18,-0.019979374008898813
0.184,-0.01994189480247833
0.188,-0.019904559839315394
0.192,-0.01987530249857535
0.196,-0.019860180997075358
0.2,-0.019850660942076954
0.20400000000000001,-0.019855613293919556
0.20800000000000002,-0.019886625594293147
0.212,-0.019951895668335235
0.216,-0.02005202452961896
0.22,-0.02016446214888042
0.224,-0.020260624320581476
0.228,-0.020313321190673653
0.232,-0.02036205137118316
0.23600000000000002,-0.020444245987444636
0.24,-0.020536273185762545
0.244,-0.020584137906726748
0.248,-0.02054343726755427
0.252,-0.02038087511629364
0.256,-0.020114337616881243
0.26,-0.019870085700760567
0.264,-0.019746156701980832
0.268,-0.01976546125794982
0.272,-0.0198571759292097
0.276,-0.019947087559750182
0.28,-0.020015530985458413
0.28400000000000003,-0.020106211913372505
0.28800000000000003,-0.02020045084163954
0.292,-0.020314066447504334
0.296,-0.020414339552045607
0.3,-0.02048290318046846
0.304,-0.020530551536546333
0.308,-0.020565290121073335
0.312,-0.020552524592780022
0.316,-0.020508001507282433
0.32,-0.020511487386006597
0.324,-0.02058589286636029
0.328,-0.02067441014541111
0.332,-0.020703210715835575
0.336,-0.020634550925241024
0.34,-0.020470906949548753
0.34400000000000003,-0.020253508319875598
0.34800000000000003,-0.01999314923999499
0.352,-0.019679516316992003
0.356,-0.01935309382515277
0.36,-0.019081603973897774
0.364,-0.018931350580614875
0.368,-0.01890675710520233
0.372,-0.01898383108582072
0.376,-0.019086412082482827
0.38,-0.01914672980468231
0.384,-0.019189305606202953
0.388,-0.019248685747228354
0.392,-0.01936167629897709
0.396,-0.019549769506824355
0.4,-0.019768129758214525
0.404,-0.019910954623733514
0.40800000000000003,-0.01993122080141951
0.41200000000000003,-0.019850252252847225
0.41600000000000004,-0.019729328321933148
0.42,-0.01963867143456198
0.424,-0.01963148331222733
0.428,-0.019722284442856047
0.432,-0.019876360282464058
0.436,-0.02006216963873342
0.44,-0.020228265749804072
0.444,-0.020343516112587782
0.448,-0.020439029189629854
0.452,-0.020505717655704536
0.456,-0.02052451736027209
0.46,-0.02050615038547719
0.464,-0.020466122881506624
0.468,-0.020395732171821456
0.47200000000000003,-0.020303152041016265
0.47600000000000003,-0.020208095734289774
0.48,-0.02009618700697267
0.484,-0.019999640186584813
0.488,-0.019942976626909963
0.492,-0.019938360842668312
0.496,-0.019983581103910734
0.5,-0.02003457109545522
0.504,-0.020071305045045024
0.508,-0.020116044495428937
0.512,-0.020105346453827198
0.516,-0.020029883189584794
0.52,-0.019904704082572944
0.524,-0.019768778852873505
0.528,-0.019662086923371187
0.532,-0.019608596715362477
0.536,-0.01962162668962797
0.54,-0.01969963825142045
0.544,-0.019807700491869508
0.548,-0.019930908274361482
0.552,-0.02004974067804106
0.556,-0.020150566715069616
0.56,-0.020271394483811992
0.5640000000000001,-0.020389193144145782
0.5680000000000001,-0.020464992975989138
0.5720000000000001,-0.02046266104332539
0.5760000000000001,-0.02035702689771178
0.58,-0.020222471978959083
0.584,-0.020157105742745287
0.588,-0.02018013658286769
0.592,-0.02020903331546386
0.596,-0.02017323694704814
0.6,-0.020533532563869063
0.604,-0.020524180792671137
0.608,-0.020518459143454924
0.612,-0.020528411928225982
0.616,-0.020513434669983545
0.62,-0.020458045259083738
0.624,-0.02039900168565929
0.628,-0.020367412412255495
0.632,-0.020354791127219732
0.636,-0.020363565925387454
0.64,-0.020384553319361207
0.644,-0.020390443252377898
0.648,-0.020384048467959777
0.652,-0.020378783589059143
0.656,-0.02038154825149555
0.66,-0.02039373680675866
0.664,-0.020448453082456557
0.668,-0.02054228332149386
0.672,-0.020660346427799833
0.676,-0.020782352183145548
0.68,-0.02087764889530129
0.684,-0.020933206590001575
0.6880000000000001,-0.020923133602515888
0.6920000000000001,-0.02084151595928462
0.6960000000000001,-0.020725231853155116
0.7000000000000001,-0.02060286548966553
0.704,-0.020496029316905653
0.708,-0.020432129553810303
0.712,-0.020403665550986792
0.716,-0.0203701770746919
0.72,-0.020296036040310387
0.724,-0.020221558438327923
0.728,-0.020191459678585492
0.732,-0.020217543667659404
0.736,-0.020290314391094175
0.74,-0.02039332811752893
0.744,-0.020496029316905653
0.748,-0.02060704854413452
0.752,-0.02067974714594052
0.756,-0.02071241824377595
0.76,-0.020724486596324435
0.764,-0.020739560016738573
0.768,-0.020740930327685314
0.772,-0.020714293406124122
0.776,-0.020673785091295055
0.78,-0.02064284491255024
0.784,-0.02062914180308284
0.788,-0.020624550059384114
0.792,-0.020635921236187765
0.796,-0.02066065895485786
0.8,-0.020669553955740206
0.804,-0.020658302981651184
0.808,-0.020620102558942942
0.812,-0.02055233226843662
0.8160000000000001,-0.020515454075589266
0.8200000000000001,-0.020537523293994657
0.8240000000000001,-0.02061503000438571
0.8280000000000001,-0.020736578989415843
0.8320000000000001,-0.020860507988195578
0.836,-0.020979244229703452
0.84,-0.02076963473593808
0.844,-0.020901064384110497
0.848,-0.021001361529194695
0.852,-0.0209837638517734
0.856,-0.02084456910823613
0.86,-0.020681790592089168
0.864,-0.020566660432020076
0.868,-0.020484610059016153
0.872,-0.020364912195791268
0.876,-0.020187709353889152
0.88,-0.019982066549706443
0.884,-0.01981936015518826
0.888,-0.019750916729480036
0.892,-0.019808734235215293
0.896,-0.0199235037871405
0.9,-0.020001419186761283
0.904,-0.019989302753126947
0.908,-0.019940644694246213
0.912,-0.019898814149556254
0.916,-0.019883235877740685
0.92,-0.01986284949734006
0.924,-0.019839385927445004
0.928,-0.01982012945256187
0.932,-0.019849579117645316
0.936,-0.019948289586896446
0.9400000000000001,-0.020077795991634843
0.9440000000000001,-0.020208384220804877
0.9480000000000001,-0.020329692800405755
0.9520000000000001,-0.020482879139925535
0.9560000000000001,-0.02063558466858681
0.96,-0.02075451323443809
0.964,-0.020833534499033433
0.968,-0.02086029162330925
0.972,-0.020883923477004785
0.976,-0.020862262947829124
0.98,-0.020795550441211518
0.984,-0.020716072406300592
0.988,-0.02062685795150494
0.992,-0.02054629809216238
0.996,-0.02047203685506624
1.0,-0.020396188942137034
1.004,-0.02031522039356475
1.008,-0.020234540331507563
1.012,-0.020151937026016357
1.016,-0.02009592256100049
1.02,-0.02005579889485823
1.024,-0.02004690389397588
1.028,-0.020064333287596697
1.032,-0.020087243925004473
1.036,-0.020100826831757245
1.04,-0.020114578022310498
1.044,-0.020139051295008415
1.048,-0.02016679408154417
1.052,-0.020164894878653073
1.056,-0.020106764845859788
1.06,-0.02003666262268972
1.064,-0.019991418320904373
1.068,-0.019953746790140482
1.072,-0.019946967357035557
1.076,-0.01996521412911583
1.08,-0.020027719540721522
1.084,-0.02010431271048141
1.088,-0.020145590322684086
1.092,-0.02016126475667136
1.096,-0.02017160219012922
1.1,-0.0201898489622095
1.104,-0.02021117292378421
1.108,-0.020258412590632352
1.112,-0.020297478472885905
1.116,-0.02033882820671736
1.12,-0.020346569261539292
1.124,-0.02031709555591292
1.1280000000000001,-0.020287381444857294
1.1320000000000001,-0.0202651199021085
1.1360000000000001,-0.020238891669777038
1.1400000000000001,-0.020197229408887556
1.1440000000000001,-0.020155807553427323
1.1480000000000001,-0.02012792052363402
1.1520000000000001,-0.0201033510887644
1.156,-0.02008827766835026
1.16,-0.020104216548309708
1.164,-0.020148787714893146
1.168,-0.020196484152056875
1.172,-0.020227688776773865
1.176,-0.020260672401667325
1.18,-0.020304690635763484
1.184,-0.02030673408191213
1.188,-0.020290747120866832
1.192,-0.020288655593632333
1.196,-0.020309955514664114
1.2,-0.0202878622557158
1.204,-0.02024999840060851
1.208,-0.02023694438580009
1.212,-0.02028161171455523
1.216,-0.020375874683365186
1.22,-0.020472926355154474
1.224,-0.020543172821582096
1.228,-0.020581445365919118
1.232,-0.02060579843590241
1.236,-0.02060849097671004
1.24,-0.020603586705953286
1.244,-0.02056754993210831
1.248,-0.02047696516636592
1.252,-0.020355536384050413
1.256,-0.020230164952695168
1.26,-0.020129050429151505
1.264,-0.020075824667114973
1.268,-0.02006517470659908
1.272,-0.020063732274023565
1.276,-0.02005334675947985
1.28,-0.02002173344553313
1.284,-0.01996629595354747
1.288,-0.01994492391088691
1.292,-0.019957737520266076
1.296,-0.01995009262761584
1.3,-0.01987974999901652
1.304,-0.01977262533974155
1.308,-0.019666462302183586
1.312,-0.01964004174550872
1.316,-0.019717115726127117
1.32,-0.019858281794184262
1.324,-0.02000661194403314
1.328,-0.02009503306091226
1.332,-0.020127463753318437
1.336,-0.020090224952327207
1.34,-0.020019569796669856
1.344,-0.01996629595354747
1.348,-0.01994249581605146
1.352,-0.01993876953189804
1.356,-0.019940500450988663
1.36,-0.019943794005369424
1.364,-0.019964685237171476
1.368,-0.01998771607729388
1.372,-0.01998836517195286
1.3760000000000001,-0.020003703038339184
1.3800000000000001,-0.01999920745681216
1.3840000000000001,-0.019951030208789928
1.3880000000000001,-0.019879701917930672
1.3920000000000001,-0.019774091812859988
1.3960000000000001,-0.019618453337961837
1.4000000000000001,-0.019410454560572454
1.4040000000000001,-0.019190171065748263
1.408,-0.019015420359224523
1.412,-0.01892644630985812
1.416,-0.018913849065365283
1.42,-0.01896510350288194
1.424,-0.01906323699910287
1.428,-0.019170217415120292
1.432,-0.019269168289800676
1.436,-0.01936674885353432
1.44,-0.01947716706719006
1.444,-0.019605711850211444
1.448,-0.019727068510898175
1.452,-0.019822894114998275
1.456,-0.01986563820031939
1.46,-0.01986306586222639
1.464,-0.019830394764390954
1.468,-0.019798324680128654
1.472,-0.019764884284919612
1.476,-0.01972230848339897
1.48,-0.01967146273511204
1.484,-0.019644994097351327
1.488,-0.019641388015912538
1.492,-0.019655668098410142
1.496,-0.01966958757276387
1.5,-0.019664178450605686
1.504,-0.019637974258817147
1.508,-0.019616746459414143
1.512,-0.019605519525868042
1.516,-0.019596624524985697
1.52,-0.019597081295301275
1.524,-0.019611409458884732
1.528,-0.019650667665481687
1.532,-0.01971088922550947
1.536,-0.019753272702686713
1.54,-0.019764331352432333
1.544,-0.019770389569249498
1.548,-0.019770389569249498
1.552,-0.01971375005011758
1.556,-0.019594725322094594
1.56,-0.01941833985865194
1.564,-0.019204330945531242
1.568,-0.019001789371385896
1.572,-0.018862378262962293
1.576,-0.01879436756702672
1.58,-0.018802974081393965
1.584,-0.01884514119368488
1.588,-0.018920147687611702
1.592,-0.01905217834935725
1.596,-0.019227602191082896
1.6,-0.01942757142713524
1.604,-0.01960720236387281
1.608,-0.019715384807036496
1.612,-0.019745483566778927
1.616,-0.019743872850402935
1.62,-0.01976531701469227
1.624,-0.01981383083031545
1.6280000000000001,-0.019842174630424335
1.6320000000000001,-0.019799502666731993
1.6360000000000001,-0.019701128765081816
1.6400000000000001,-0.019563761102806856
1.6440000000000001,-0.019433028630379275
1.6480000000000001,-0.019345328729787913
1.6520000000000001,-0.01930873902345566
1.6560000000000001,-0.01931595118633324
1.6600000000000001,-0.0192942185355288
1.6640000000000001,-0.019199715161289592
1.668,-0.019079007595261845
1.672,-0.018996500451942337
1.676,-0.018945750865827105
1.68,-0.018920676579556057
1.684,-0.01892269598516178
1.688,-0.018943370852077507
1.692,-0.019010732453354096
1.696,-0.019061890728699057
1.7,-0.01907410332450509
1.704,-0.0190496540923501
1.708,-0.019014843386194316
1.712,-0.019048283781403358
1.716,-0.019146152831652104
1.72,-0.019260922383577312
1.724,-0.019344607513500152
1.728,-0.01937528324627279
1.732,-0.019368335529367387
1.736,-0.019365907434531936
1.74,-0.019368912502397594
1.744,-0.01937963458454226
1.748,-0.01938405804444051
1.752,-0.01938913059899774
1.756,-0.019395861951016814
1.76,-0.0193899479774572
1.764,-0.019366412285933367
1.768,-0.019299026644113853
1.772,-0.01923849255702804
1.776,-0.019223443177156827
1.78,-0.01924132934109322
1.784,-0.019242723692582887
1.788,-0.019199306472059863
1.792,-0.019130117789520954
1.796,-0.019064174580276958
1.8,-0.019018401386547257
1.804,-0.018992798208331847
1.808,-0.018972652233360476
1.812,-0.018939043554350957
1.816,-0.01889889584766577
1.82,-0.018851656180817626
1.824,-0.018808864014410658
1.828,-0.018794535850827198
1.832,-0.018806339757403503
1.836,-0.018853891951309674
1.84,-0.018923176796020284
1.844,-0.01899140385684218
1.848,-0.019051385011440717
1.852,-0.019090378772065493
1.856,-0.019110476665951014
1.86,-0.019115020328563888
1.864,-0.019098696799917634
1.868,-0.01907898355471892
1.872,-0.019086532285197452
1.8760000000000001,-0.01909506667793592
1.8800000000000001,-0.019083166609187914
1.8840000000000001,-0.019029532157921653
1.8880000000000001,-0.01895618446145667
1.8920000000000001,-0.018919931322725375
1.8960000000000001,-0.018923537404164165
1.9000000000000001,-0.018938442540777825
1.9040000000000001,-0.018964069759536156
1.9080000000000001,-0.01897231566575952
1.9120000000000001,-0.018947193298402623
1.9160000000000001,-0.018925412566512333
1.92,-0.018925965498999615
1.924,-0.018944669041395468
1.928,-0.018976210233713414
1.932,-0.018987821815946316
1.936,-0.018984840788623586
1.94,-0.01898248481541691
1.944,-0.018983061788447116
1.948,-0.019011742156156957
1.952,-0.019035710577453447
1.956,-0.019039196456177607
1.96,-0.019054582403649777
1.964,-0.019084080149819074
1.968,-0.01912389128890331
1.972,-0.019186492862680697
1.976,-0.01920596570245016
1.98,-0.019128483032602037
1.984,-0.018999144911664115
1.988,-0.01884463634228345
1.992,-0.018706451301549035
1.996,-0.018623246982484697
2.0,-0.018582329978425894
2.004,-0.01856562180109284
2.008,-0.018553192840400478
2.012,-0.018540811960793966
2.016,-0.018553721732344833
2.02,-0.018581416437794734
2.024,-0.018618943725301075
2.028,-0.018675030311945715
2.032,-0.018724481708742982
2.036,-0.01875700856332086
2.04,-0.018775832308431342
2.044,-0.018773957146083174
2.048,-0.018753282279167446
2.052,-0.018777202619378083
2.056,-0.01884321795025086
2.06,-0.018965295827225344
2.064,-0.019107423516999504
2.068,-0.01919271936329834
2.072,-0.019192406836240312
2.076,-0.019153316913443835
2.08,-0.019084296514705404
2.084,-0.019032969955559965
2.088,-0.018997774600717377
2.092,-0.01894161589244396
2.096,-0.0188880776033494
2.1,-0.01884631918028822
2.104,-0.018815186677200002
2.108,-0.01880268559487886
2.112,-0.018797588999778708
2.116,-0.01879513686440033
2.12,-0.018821341056188868
2.124,-0.018850454153671363
2.128,-0.018833842138510005
2.132,-0.018744916170229456
2.136,-0.01859129710093702
2.14,-0.018420392881281323
2.144,-0.018256171932558848
2.148,-0.018121376608376892
2.152,-0.018061996467351495
2.156,-0.018088729551084388
2.16,-0.018161307950175756
2.164,-0.01823929547142531
2.168,-0.018297016814988867
2.172,-0.018361661834914902
2.176,-0.01842659534135604
2.18,-0.018450708005910078
2.184,-0.018428085855017408
2.188,-0.01841676275929961
2.192,-0.018416474272784505
2.196,-0.018406016636612014
2.2,-0.01836786429498962
2.204,-0.018305406964469785
2.208,-0.01825198887808985
2.212,-0.01821864464505251
2.216,-0.018189098817797362
2.22,-0.01817183770797702
2.224,-0.01819462814267017
2.228,-0.018273745569437214
2.232,-0.018392722216374342
2.236,-0.018543312177258194
2.24,-0.018698541962926623
2.244,-0.01882367298885262
2.248,-0.018908319740492473
2.2520000000000002,-0.018960680042983694
2.2560000000000002,-0.01899601964108383
2.2600000000000002,-0.01900919385860688
2.2640000000000002,-0.018989288289064758
2.2680000000000002,-0.01892594145845669
2.2720000000000002,-0.01884783373449251
2.2760000000000002,-0.01877667372743373
2.2800000000000002,-0.018693565570541092
2.2840000000000003,-0.01862206899588136
2.2880000000000003,-0.018562881179199357
2.2920000000000003,-0.018505712768123083
2.2960000000000003,-0.018429816774108026
2.3000000000000003,-0.018342116873516664
2.3040000000000003,-0.018237853038849797
2.308,-0.018148542421882442
2.312,-0.018115222229388026
2.316,-0.0181176743647664
2.32,-0.018151884057349053
2.324,-0.0181993160485406
2.328,-0.01827675063730287
2.332,-0.018362310929573883
2.336,-0.018442486140229638
2.34,-0.018559202976131794
2.344,-0.018711980626421845
2.348,-0.018853891951309674
2.352,-0.018929210972294525
2.356,-0.018910843997499625
2.36,-0.018840092679670573
2.364,-0.018766793064291444
2.368,-0.018725635654803393
2.372,-0.018716235802519614
2.376,-0.01870195572002201
2.38,-0.01865298513408325
2.384,-0.018564660179375827
2.388,-0.018466454561526128
2.392,-0.01838841895919072
2.396,-0.01834680477938709
2.4,-0.018355194928868005
2.404,-0.018356733523615224
2.408,-0.01829925258548092
2.412,-0.0182335738222091
2.416,-0.018196743710447594
2.42,-0.01824285347177825
2.424,-0.01833050529128376
2.428,-0.01839760244658817
2.432,-0.018445947978410877
2.436,-0.018480662522394956
2.44,-0.018496192713124675
2.444,-0.018502851943514975
2.448,-0.01849369249666045
2.452,-0.01846568526415252
2.456,-0.018454025600833767
2.46,-0.01844989062745062
2.464,-0.01847385904874711
2.468,-0.018504078011204163
2.472,-0.01852032941822164
2.476,-0.01851992072899191
2.48,-0.01850850147110241
2.484,-0.018489148834047574
2.488,-0.018476407346297186
2.492,-0.018504534781519744
2.496,-0.018556101746094435
2.5,-0.01862394415822953
2.504,-0.018682603082967174
2.508,-0.018702172084908337
2.512,-0.01866952502761583
2.516,-0.018617188765667533
2.52,-0.018572954166685043
2.524,-0.018556822962382192
2.528,-0.018528190675758203
2.532,-0.018477753616701
2.536,-0.018430730314739185
2.54,-0.01840399723100629
2.544,-0.018395174351752717
2.548,-0.01839289050017482
2.552,-0.018382048215315524
2.556,-0.018380028809709802
2.56,-0.018376518890442714
2.564,-0.01837147037642841
2.568,-0.018375941917412507
2.572,-0.018397482243873543
2.576,-0.018419551462278937
2.58,-0.018428350300989584
2.584,-0.01842229208417242
2.588,-0.018414791434779736
2.592,-0.018407314825929978
2.596,-0.018381182755770217
2.6,-0.01834086676528455
2.604,-0.018304854031982506
2.608,-0.018291054760343404
2.612,-0.01833209196711683
2.616,-0.018427172314386245
2.62,-0.01851994476953484
2.624,-0.018566992112039576
2.628,-0.01854881746158808
2.632,-0.01848979792870656
2.636,-0.01843731742350071
2.64,-0.018394092527321083
2.644,-0.018379620120480073
2.648,-0.01837404271452141
2.652,-0.018358103834561962
2.656,-0.018341131211256727
2.66,-0.018329471547937973
2.664,-0.01831766764136167
2.668,-0.01830629646455802
2.672,-0.01829463680123927
2.676,-0.018293530936264707
2.68,-0.01830052673425596
2.684,-0.018316922384530986
2.688,-0.018379523958308372
2.692,-0.01847912392764774
2.696,-0.0185598761113337
2.7,-0.01859473489857533
2.704,-0.018608678413471982
2.708,-0.018578820059158806
2.712,-0.01849977475402054
2.716,-0.018439000261505478
2.72,-0.01843998592376541
2.724,-0.01848155202248319
2.728,-0.018519608201933883
2.732,-0.0185779545996135
2.736,-0.0187148895321158
2.74,-0.018785376403972674
2.744,-0.018746478805519596
2.748,-0.018724000897884476
2.7520000000000002,-0.0187332565069107
2.7560000000000002,-0.018780279808872518
2.7600000000000002,-0.018833938300681707
2.7640000000000002,-0.01884290542319283
2.7680000000000002,-0.01881751860986375
2.7720000000000002,-0.018793285742595086
2.7760000000000002,-0.01875224853582166
2.7800000000000002,-0.01874919538687015
2.7840000000000003,-0.01877996728181449
2.7880000000000003,-0.01880203650021988
2.7920000000000003,-0.018792420283049775
2.7960000000000003,-0.01873840118309671
2.8000000000000003,-0.018649355012101534
2.8040000000000003,-0.0185644438144895
2.8080000000000003,-0.018509102484675542
2.8120000000000003,-0.018502299011027692
2.816,-0.01853816750107219
2.82,-0.018577834396898873
2.824,-0.018601754737109507
2.828,-0.018612356616539552
2.832,-0.018608894778358313
2.836,-0.01858526292466278
2.84,-0.018561679152053093
2.844,-0.018545788353179497
2.848,-0.018509559254991124
2.852,-0.018440827342767797
2.856,-0.018331274588657367
2.86,-0.018189988317885594
2.864,-0.01807404077935705
2.868,-0.017993601122729116
2.872,-0.017907776384485926
2.876,-0.01782207184895736
2.88,-0.01778449648036517
2.884,-0.017781130804355637
2.888,-0.017809113996320642
2.892,-0.017851425351869107
2.896,-0.017897078342884183
2.9,-0.017942154360869052
2.904,-0.018012977800326877
2.908,-0.018113154742696452
2.912,-0.018223212348208312
2.916,-0.018318509060364054
2.92,-0.018374739890266244
2.924,-0.018369523092451462
2.928,-0.018297497625847373
2.932,-0.01818087695211692
2.936,-0.018056755628993785
2.94,-0.017969199971659973
2.944,-0.0179375385766274
2.948,-0.017976965067024835
2.952,-0.018047932749740214
2.956,-0.01811870810811219
2.96,-0.018200037264828356
2.964,-0.018299829558511126
2.968,-0.018401472973999137
2.972,-0.018490062374678734
2.976,-0.018571824261167557
2.98,-0.01863192561848072
2.984,-0.0186302908615618
2.988,-0.01857778631581302
2.992,-0.018514415444662025
2.996,-0.01847095014305315
3.0,-0.018408613015247943
3.004,-0.01833781361633304
3.008,-0.01825523435138476
3.012,-0.018163038869266374
3.016,-0.018076180387677398
3.02,-0.01800093348832132
3.024,-0.01794479882059083
3.028,-0.0179237393049883
3.032,-0.017916911790797525
3.036,-0.017897919761886566
3.04,-0.017913353790444585
3.044,-0.017972036755725153
3.048,-0.0180399272489461
3.052,-0.01810952462071474
3.056,-0.01817443408661295
3.06,-0.018235521106186047
3.064,-0.018299565112538947
3.068,-0.01836543620015417
3.072,-0.018446861519042037
3.076,-0.018502539416456947
3.08,-0.0185210506345094
3.084,-0.018504679024777294
3.088,-0.01843116304451184
3.092,-0.018309061126994427
3.096,-0.018173857113582742
3.1,-0.018078680604141625
3.104,-0.0180149972059326
3.108,-0.01795321301061467
3.112,-0.017905300208564623
3.116,-0.017871883853898506
3.12,-0.017890130625978783
3.124,-0.017979104675345182
3.128,-0.018106038741990575
3.132,-0.018222178604862523
3.136,-0.018260090541055665
3.14,-0.018266581487645487
3.144,-0.01830817162690619
3.148,-0.018353680374663714
3.152,-0.018365027510924437
3.156,-0.01831511934381159
3.16,-0.018230136024570787
3.164,-0.01815474488195716
3.168,-0.018104620349957985
3.172,-0.018108082188139224
3.176,-0.018167702734593876
3.18,-0.0182175868611638
3.184,-0.01823484797098414
3.188,-0.01823165057877508
3.192,-0.01820544638698654
3.196,-0.018177150667963504
3.2,-0.018185132128214692
3.204,-0.018215278969042972
3.208,-0.018251003215829915
3.212,-0.018261725297974582
3.216,-0.018253238986321963
3.22,-0.01826408127118126
3.224,-0.018299685315253573
3.228,-0.018349857928338598
3.232,-0.018390558567511067
3.236,-0.01840099216314063
3.24,-0.01839161635139978
3.244,-0.018367143078701863
3.248,-0.01833552976475514
3.2520000000000002,-0.018281486624259147
3.2560000000000002,-0.018219389901883196
3.2600000000000002,-0.018197657251078754
3.2640000000000002,-0.018235977876501625
3.2680000000000002,-0.018290549908941973
3.2720000000000002,-0.018318292695477727
3.2760000000000002,-0.01834620376581396
3.2800000000000002,-0.01837724010673047
3.2840000000000003,-0.018416161745726477
3.2880000000000003,-0.018440442694080992
3.2920000000000003,-0.01844015420756589
3.2960000000000003,-0.018431427490484018
3.3000000000000003,-0.018405896433897385
3.3040000000000003,-0.018378995066364017
3.3080000000000003,-0.01840459824457942
3.3120000000000003,-0.0184753736029514
3.3160000000000003,-0.01852054578310797
3.3200000000000003,-0.018519968810077763
3.3240000000000003,-0.01847912392764774
3.3280000000000003,-0.018436572166670023
3.332,-0.018397482243873543
3.336,-0.018348247211962605
3.34,-0.018305214640126383
3.344,-0.018277712259019883
3.348,-0.018262422473719415
3.352,-0.01825340727012244
3.356,-0.01825124362125917
3.36,-0.018255258391927688
3.364,-0.018258095175992868
3.368,-0.018236290403559653
3.372,-0.018198258264651886
3.376,-0.018142339961807724
3.38,-0.018102961552496143
3.384,-0.018102336498380084
3.388,-0.018136041339561305
3.392,-0.018198859278225017
3.396,-0.018283650273122422
3.4,-0.01834238131948884
3.404,-0.018370027943852892
3.408,-0.018438255004674792
3.412,-0.01854429783951813
3.416,-0.018606586886237488
3.42,-0.018581584721595212
3.424,-0.01849460603729161
3.428,-0.01838243286400233
3.432,-0.018290910517085854
3.436,-0.01823225159234821
3.44,-0.01821224986063439
3.444,-0.018215471293386375
3.448,-0.01819772937270753
3.452,-0.018133108393324424
3.456,-0.018054664101759287
3.46,-0.018003385623699696
3.464,-0.017978840229373003
3.468,-0.017994250217388097
3.472,-0.018022305530981882
3.476,-0.018066852657022396
3.48,-0.018146859583877673
3.484,-0.018225880848473014
3.488,-0.018260330946484916
3.492,-0.01826458612258269
3.496,-0.018262614798062817
3.5,-0.018246171066701938
3.504,-0.01820768215747859
3.508,-0.018174506208241726
3.512,-0.018167702734593876
3.516,-0.018194772385927722
3.52,-0.01821316340126555
3.524,-0.01821133632000323
3.528,-0.018209917927970637
3.532,-0.0182290061190533
3.536,-0.018305623329356112
3.54,-0.018356204631670866
3.544,-0.01833360652132112
3.548,-0.018301608558687593
3.552,-0.018321442006600935
3.556,-0.01836009919962476
3.56,-0.01838815451321854
3.564,-0.01840385298774874
3.568,-0.018432749720344907
3.572,-0.01847013276459369
3.576,-0.01847835463027413
3.58,-0.01843755782892996
3.584,-0.018348511657934784
3.588,-0.01825768648676314
3.592,-0.01815875965262568
3.596,-0.01802064673352004
3.6,-0.01784457379713541
3.604,-0.017658187467835842
3.608,-0.017520627481217483
3.612,-0.017470214462703203
3.616,-0.01746543039466108
3.62,-0.017482547261223863
3.624,-0.017518848481041013
3.628,-0.017563636012510778
3.632,-0.017628785883838243
3.636,-0.0177251403798827
3.64,-0.017861786825869898
3.644,-0.018007496556539916
3.648,-0.018095148376045433
3.652,-0.018124309554613777
3.656,-0.01811195271555019
3.66,-0.018070410657375337
3.664,-0.018024949990703663
3.668,-0.018036465410764865
3.672,-0.01811555879698898
3.676,-0.018226842470190026
3.68,-0.018333414196977718
3.684,-0.018414839515865585
3.688,-0.018468906696904503
3.692,-0.018518526377502245
3.696,-0.0185509330293655
3.7,-0.018541917825768528
3.704,-0.018511218052452965
3.708,-0.018489509442191455
3.712,-0.018494029064261404
3.716,-0.018506626308754243
3.72,-0.01849063934770894
3.724,-0.018452198519571444
3.728,-0.01843700489644268
3.732,-0.018421234300283706
3.736,-0.01837344170094828
3.74,-0.018294757003953895
3.744,-0.018199364129626448
3.748,-0.018095533024732234
3.7520000000000002,-0.01801545397624818
3.7560000000000002,-0.017965738133478733
3.7600000000000002,-0.01796662763356697
3.7640000000000002,-0.017999851663889684
3.7680000000000002,-0.01802119966600732
3.7720000000000002,-0.01803264296443975
3.7760000000000002,-0.018042860195182985
3.7800000000000002,-0.018057164318223514
3.7840000000000003,-0.018106639755563706
3.7880000000000003,-0.018223140226579535
3.7920000000000003,-0.01837365806583461
3.7960000000000003,-0.018505448322150904
3.8000000000000003,-0.01862521830700457
3.8040000000000003,-0.018703951085084807
3.8080000000000003,-0.018703927044541883
3.8120000000000003,-0.01865687970203714
3.8160000000000003,-0.018551966772711287
3.8200000000000003,-0.018453328425088934
3.8240000000000003,-0.018356420996557196
3.8280000000000003,-0.018251580188860122
3.8320000000000003,-0.018150201219344284
3.8360000000000003,-0.01806572275150491
3.84,-0.01802466150418856
3.844,-0.01806810276525451
3.848,-0.018186670722961908
3.852,-0.018301969166831474
3.856,-0.01834507386029647
3.86,-0.01832954366956675
3.864,-0.01828340986769317
3.868,-0.018236891417132785
3.872,-0.01820869186028145
3.876,-0.018165154437043796
3.88,-0.018147268273107402
3.884,-0.01818320888478067
3.888,-0.018248358756108137
3.892,-0.0183479587254475
3.896,-0.018487465996042805
3.9,-0.018616058860150043
3.904,-0.018697219733065734
3.908,-0.018714216396913893
3.912,-0.018706138774491007
3.916,-0.018691522124392446
3.92,-0.01864719136323826
3.924,-0.018563506233315413
3.928,-0.01845029931668035
3.932,-0.018358103834561962
3.936,-0.018307498491704283
3.94,-0.01829706489607472
3.944,-0.01827523608309858
3.948,-0.018232636241035015
3.952,-0.018184963844414214
3.956,-0.01814397471872664
3.96,-0.01813926277231329
3.964,-0.0181742898433554
3.968,-0.018228837835252823
3.972,-0.018269658677139918
3.976,-0.01828547735438474
3.98,-0.018272759907177277
3.984,-0.01826838452836488
3.988,-0.01826533137941337
3.992,-0.018263648541408602
3.996,-0.018274250420838644
4.0,-0.018273697488351365
4.0040000000000004,-0.0182679277580493
4.008,-0.018261821460146283
4.0120000000000005,-0.01826321581163595
4.016,-0.018275837096671712
4.0200000000000005,-0.018307546572790136
4.024,-0.01832168241203019
4.0280000000000005,-0.018319879371310795
4.032,-0.018297954396162955
4.0360000000000005,-0.018278144988792537
4.04,-0.0182885785844221
4.0440000000000005,-0.018319350479366437
4.048,-0.018330529331826686
4.0520000000000005,-0.018310743964999196
4.056,-0.01829350689572178
4.0600000000000005,-0.018310647802827495
4.064,-0.018356781604701073
4.0680000000000005,-0.018413757691433948
4.072,-0.018449554059849667
4.0760000000000005,-0.01846989235916444
4.08,-0.0184638581828902
4.0840000000000005,-0.018425417354752702
4.088,-0.018367215200330637
4.0920000000000005,-0.01830716192410333
4.096,-0.018299324707109696
4.1,-0.018327187696360075
4.104,-0.0183751726200389
4.108,-0.01842640301701264
4.112,-0.01843431235563505
4.116,-0.018417604178301992
4.12,-0.01840750715027338
4.124,-0.018397313960073068
4.128,-0.018400968122597706
4.132,-0.018408637055790867
4.136,-0.0184115219209419
4.14,-0.018409189988278146
4.144,-0.01839289050017482
4.148,-0.01835247834751745
4.152,-0.01830603201858584
4.156,-0.018265980474072355
4.16,-0.01823201118691896
4.164,-0.018205782954587493
4.168,-0.018163663923382433
4.172,-0.018124237432985
4.176,-0.018116760824135242
4.18,-0.018137796299194847
4.184,-0.018162485936779094
4.188,-0.01814931171925605
4.192,-0.018109236134199635
4.196,-0.018068126805797436
4.2,-0.0180465864793364
4.204,-0.0180103333406051
4.208,-0.017959247186888915
4.212,-0.01792095060200897
4.216,-0.017914026925646493
4.22,-0.017943188104214837
4.224,-0.01800290481284119
4.228,-0.01804927902014403
4.232,-0.018078392117626522
4.236,-0.018081565469292658
4.24,-0.018086493780592336
4.244,-0.018087888132082
4.248,-0.018078440198712374
4.252,-0.018069953887059755
4.256,-0.018080675969204422
4.26,-0.018072406022438134
4.264,-0.018022041085009707
4.268,-0.017993048190241834
4.272,-0.01802903688300096
4.276,-0.018098273646625716
4.28,-0.01813519992055892
4.284,-0.018112842215638424
4.288,-0.018035047018732275
4.292,-0.017931720765239488
4.296,-0.017814619280650527
4.3,-0.017670688550156976
4.304,-0.017524978819486954
4.308,-0.017434922945688918
4.312,-0.017423239241827235
4.316,-0.017457785502010843
4.32,-0.017515506845574402
4.324,-0.017549379970556098
4.328,-0.017542432253650694
4.332,-0.017535147969144342
4.336,-0.017548778956982966
4.34,-0.0175837339063963
4.344,-0.01764371506099483
4.348,-0.01766890954998051
4.352,-0.017654966035083854
4.356,-0.017644580520540142
4.36,-0.01762554041054333
4.364,-0.01757265121610775
4.368,-0.017482090490908285
4.372,-0.01737282622331296
4.376,-0.0172943578912049
4.38,-0.017282602065714445
4.384,-0.01731188344699742
4.388,-0.017367753668755728
4.392,-0.01742352772834234
4.396,-0.017510314088302545
4.4,-0.017632343884191184
4.404,-0.01772706362331672
4.408,-0.017776875628257863
4.412,-0.017817311821458157
4.416,-0.01784315540510282
4.42,-0.017848708770518553
4.424,-0.017842265905014584
4.428,-0.01784726633794304
4.432,-0.017843972783562277
4.436,-0.017808224496232407
4.44,-0.017738458840663295
4.444,-0.017678982537466192
4.448,-0.01763926756055366
4.452,-0.017595778218401855
4.456,-0.017569333621184065
4.46,-0.017561063674417773
4.464,-0.01753678272606326
4.468,-0.017512982588567247
4.472,-0.01749997665484468
4.476,-0.01749800533032481
4.48,-0.017515506845574402
4.484,-0.017513848048112558
4.488,-0.01750678012849253
4.492,-0.0175360615097755
4.496,-0.01759169132610456
4.5,-0.01766412548193838
4.5040000000000004,-0.01770691764834535
4.508,-0.01768763713291929
4.5120000000000005,-0.01760640413837482
4.516,-0.017509136101699206
4.5200000000000005,-0.01742352772834234
4.524,-0.01738926995467384
4.5280000000000005,-0.017372369452997378
4.532,-0.017351069531965597
4.5360000000000005,-0.017320826528965615
4.54,-0.0172714232132542
4.5440000000000005,-0.017235771088096034
4.548,-0.017246589332412403
4.5520000000000005,-0.017319912988334456
4.556,-0.017421412160564916
4.5600000000000005,-0.01747745066612371
4.564,-0.017463218664711955
4.5680000000000005,-0.017436197094463958
4.572,-0.017425282687975885
4.5760000000000005,-0.01742018609287573
4.58,-0.01743612497283518
4.5840000000000005,-0.017457665299296217
4.588,-0.017461583907793034
4.5920000000000005,-0.017488196788811302
4.596,-0.01753240734725086
4.6000000000000005,-0.017604649178741275
4.604,-0.017658211508378766
4.6080000000000005,-0.017669125914866836
4.612,-0.01765398037282392
4.616,-0.017629987910984506
4.62,-0.017625324045657004
4.624,-0.01764244091221979
4.628,-0.017642633236563194
4.632,-0.017595513772429676
4.636,-0.0175337776581976
4.64,-0.017473051246768387
4.644,-0.017424561471688124
4.648,-0.01739535221203393
4.652,-0.017378788277958423
4.656,-0.01739580898234951
4.66,-0.01743379304017143
4.664,-0.017466632421807342
4.668,-0.01752413740048457
4.672,-0.017596523475232537
4.676,-0.01765554300811406
4.68,-0.017683550240621994
4.684,-0.01766412548193838
4.688,-0.017637007749518683
4.692,-0.017615058733827915
4.696,-0.017579382568126824
4.7,-0.017512069047936087
4.704,-0.01746119925910623
4.708,-0.017434394053744563
4.712,-0.017435692243062528
4.716,-0.01744804908212611
4.72,-0.017449034744386048
4.724,-0.017470310624874905
4.728,-0.017511924804678537
4.732,-0.01755392363316897
4.736,-0.017592917393793747
4.74,-0.01761849653146623
4.744,-0.01762676647823252
4.748,-0.017640445547156994
4.752,-0.017660591522128368
4.756,-0.01769020947101229
4.76,-0.017721942987673638
4.764,-0.0177366557999439
4.768,-0.017755647828854856
4.772,-0.017794280981335755
4.776,-0.017811277645183917
4.78,-0.017788919940263423
4.784,-0.01770405682373724
4.788,-0.017589191109640332
4.792,-0.017508727412469477
4.796,-0.017475599544318463
4.8,-0.017455285285546615
4.804,-0.017439707013731046
4.808,-0.01740768501055459
4.812,-0.017376913115610255
4.816,-0.01738155294039483
4.82,-0.017390327738562552
4.824,-0.017412420997510867
4.828,-0.01743735104052437
4.832,-0.01745744893440989
4.836,-0.017476368841692073
4.84,-0.01751613189969046
4.844,-0.017552601403308082
4.848,-0.01760133158381759
4.852,-0.017639964736298492
4.856,-0.01765275430513473
4.86,-0.017649436710211044
4.864,-0.017628016586464634
4.868,-0.017596018623831106
4.872,-0.017564309147712686
4.876,-0.017506756087949604
4.88,-0.017469950016731028
4.884,-0.017516853115978216
4.888,-0.017571617472761966
4.892,-0.017608808192667347
4.896,-0.017577651649036206
4.9,-0.017515122196887598
4.904,-0.01751495391308712
4.908,-0.01753752798289394
4.912,-0.01755108684910379
4.916,-0.01754803370015228
4.92,-0.01753332088788202
4.924,-0.017519449494614144
4.928,-0.017532022698564055
4.932,-0.017576786189490896
4.936,-0.017624602829369247
4.94,-0.017658716359780197
4.944,-0.017663067698049668
4.948,-0.017668765306722956
4.952,-0.017710692013584616
4.956,-0.017751224368956608
4.96,-0.01776730749217361
4.964,-0.017863613907132217
4.968,-0.017914796223020103
4.972,-0.0178987130998031
4.976,-0.01791058912800818
4.98,-0.017954535240475564
4.984,-0.018008578380971554
4.988,-0.018042090897809376
4.992,-0.01803547974850493
4.996,-0.018005861799621
5.0,-0.017948164496600368
5.0040000000000004,-0.017876980448998662
5.008,-0.017809594807179148
5.0120000000000005,-0.01772422683925154
5.016,-0.017615779950115675
5.0200000000000005,-0.01752601256283274
5.024,-0.017486706275149935
5.0280000000000005,-0.017494976221916227
5.032,-0.01751089106133275
5.0360000000000005,-0.017528584900925744
5.04,-0.017580560554730163
5.0440000000000005,-0.017652321575362076
5.048,-0.017703383688535336
5.0520000000000005,-0.017712831621904963
5.056,-0.017727279988203046
5.0600000000000005,-0.017738651165006697
5.064,-0.017717952257548044
5.0680000000000005,-0.017671025117757932
5.072,-0.01761452984188356
5.0760000000000005,-0.017557866282208713
5.08,-0.017499447762900324
5.0840000000000005,-0.01746271381331052
5.088,-0.017441942784223095
5.0920000000000005,-0.01744379390602834
5.096,-0.01746942112478667
5.1000000000000005,-0.017508487007040222
5.104,-0.017564669755856563
5.1080000000000005,-0.017630444681300088
5.112,-0.017692877971276996
5.1160000000000005,-0.017759854923866777
5.12,-0.01783224099861475
5.124,-0.01789126053149627
5.128,-0.017926720332311033
5.132,-0.017929749440719615
5.136,-0.0178852023146791
5.14,-0.017831543822869916
5.144,-0.017767019005658507
5.148,-0.01768443974071023
5.152,-0.017591739407190412
5.156,-0.017488629518583956
5.16,-0.017396482117551418
5.164,-0.0173446026259187
5.168,-0.01731541740680743
5.172,-0.01727466868654911
5.176,-0.017244449724092052
5.18,-0.017232189047200166
5.184,-0.017250580062537997
5.188,-0.017262504171828928
5.192,-0.01725863364441796
5.196,-0.01726050880676613
5.2,-0.017272793524200938
5.204,-0.017301377729739078
5.208,-0.01733200538142586
5.212,-0.017355733397293096
5.216,-0.01736986923653315
5.22,-0.017390063292590373
5.224,-0.017386361048979882
5.228,-0.017350925288708043
5.232,-0.017299767013363086
5.236,-0.017260436685137354
5.24,-0.01725812879301653
5.244,-0.017270028861764535
5.248,-0.017265485199151658
5.252,-0.017240987885910816
5.256,-0.017206922436585715
5.26,-0.017208845680019735
5.264,-0.017268586429189017
5.268,-0.017332390030112665
5.272,-0.017365806384778783
5.276,-0.017358690384072905
5.28,-0.01734962709939008
5.284,-0.0173332795302009
5.288,-0.017332822759885323
5.292,-0.01733251023282729
5.296,-0.017316859839382946
5.3,-0.01729983913499186
5.304,-0.01728096730879553
5.308,-0.01728252994408567
5.312,-0.017314023055317766
5.316,-0.017380086467276387
5.32,-0.017453362042112595
5.324,-0.017507813871838317
5.328,-0.01752281517062368
5.332,-0.01751620402131923
5.336,-0.017486754356235784
5.34,-0.017441582176079218
5.344,-0.017401506591022797
5.348,-0.017387779441012472
5.352,-0.017406122375264448
5.356,-0.017445837352176988
5.36,-0.017484470504657887
5.364,-0.01752252668410858
5.368,-0.0175266376169488
5.372,-0.017481417355706377
5.376,-0.017427879066611814
5.38,-0.0173924673468829
5.384,-0.017374148453173848
5.388,-0.01737987010239006
5.392,-0.017398669806957617
5.396,-0.017411243010907528
5.4,-0.01741513757886142
5.404,-0.017388332373499755
5.408,-0.01735460349177561
5.412,-0.01732674050252523
5.416,-0.017321499664167524
5.42,-0.017325081705063385
5.424,-0.017346357585552245
5.428,-0.017349362653417903
5.432,-0.017345540207092787
5.436,-0.017364051425145237
5.44,-0.01739479927954665
5.444,-0.01746593524606251
5.448,-0.017540436888587897
5.452,-0.017579935500614107
5.456,-0.017570006756385974
5.46,-0.01752240648139395
5.464,-0.017457929745268396
5.468,-0.01742033033613328
5.472,-0.01742124387676444
5.476,-0.017453217798855045
5.48,-0.017493726113684112
5.484,-0.017508342763782672
5.488,-0.01749649077612052
5.492,-0.017476368841692073
5.496,-0.01745461215034471
5.5,-0.017427013607066503
5.5040000000000004,-0.017388476616757305
5.508,-0.017337943395528403
5.5120000000000005,-0.017322942096743038
5.516,-0.017337462584669897
5.5200000000000005,-0.01736607083075096
5.524,-0.017390592184534728
5.5280000000000005,-0.017383163656770822
5.532,-0.017347992342471162
5.5360000000000005,-0.017367465182240624
5.54,-0.01743328818877
5.5440000000000005,-0.01748617738320558
5.548,-0.017491995194593494
5.5520000000000005,-0.017470334665417833
5.556,-0.017447472109095905
5.5600000000000005,-0.0174083581457565
5.564,-0.017351959032053832
5.5680000000000005,-0.01731181132536864
5.572,-0.017307772514157195
5.5760000000000005,-0.01732363927248787
5.58,-0.01735073296436464
5.5840000000000005,-0.017379918183475913
5.588,-0.017417012741209593
5.5920000000000005,-0.01745023677153231
5.596,-0.017474782165859005
5.6000000000000005,-0.0174764890444067
5.604,-0.017464276448600664
5.6080000000000005,-0.017460333799560922
5.612,-0.017454323663829607
5.6160000000000005,-0.01742686936380895
5.62,-0.01736585446586463
5.6240000000000006,-0.017311402636138912
5.628,-0.01724344002128919
5.632,-0.0171759822578409
5.636,-0.017149922309309916
5.64,-0.017190478705224835
5.644,-0.017254306346691412
5.648,-0.017333495895087227
5.652,-0.017374004209916298
5.656,-0.017388476616757305
5.66,-0.017385735994863826
5.664,-0.017385808116492603
5.668,-0.01738951036010309
5.672,-0.017399150617816123
5.676,-0.01741362302465713
5.68,-0.017416892538494967
5.684,-0.01741052179461977
5.688,-0.01738282708916987
5.692,-0.01737592745335032
5.696,-0.01736383506025891
5.7,-0.017345035355691353
5.704,-0.017310224649535574
5.708,-0.017243079413145315
5.712,-0.017156317093728037
5.716,-0.0170981389798489
5.72,-0.017082897275634282
5.724,-0.017080541302427605
5.728,-0.017068905679651778
5.732,-0.01706330423315019
5.736,-0.017065636165813945
5.74,-0.01706575636852857
5.744,-0.017082825154005506
5.748,-0.017117034846588157
5.752,-0.017169972122109585
5.756,-0.017230722574081727
5.76,-0.017326259691666724
5.764,-0.017420450538847904
5.768,-0.017487932342839123
5.772,-0.01749302893793928
5.776,-0.017424609552773977
5.78,-0.01731020060899265
5.784,-0.017213653788604788
5.788,-0.017129728253252693
5.792,-0.01708256070803333
5.796,-0.017060347246370386
5.8,-0.017048423137079455
5.804,-0.017058327840764664
5.808,-0.01710636084552934
5.812,-0.01716415431072167
5.816,-0.017228847411733555
5.82,-0.017292795255914758
5.824,-0.017366311236180213
5.828,-0.0174537466907994
5.832,-0.017516516548377263
5.836,-0.017533657455482975
5.84,-0.017497404316751678
5.844,-0.017426172188064117
5.848,-0.017374941791090382
5.852,-0.017355757437836024
5.856,-0.01734368908528754
5.86,-0.017347824058670684
5.864,-0.017343713125830464
5.868,-0.01729938236467628
5.872,-0.01723721352067155
5.876,-0.017165139972981608
5.88,-0.01710068727739898
5.884,-0.017049168393910137
5.888,-0.01699685617250476
5.892,-0.017023132485922077
5.896,-0.017081623126859243
5.9,-0.017132468875146176
5.904,-0.01717780933910322
5.908,-0.0172260346682113
5.912,-0.017274428281119858
5.916,-0.017353064897028394
5.92,-0.017444178554715143
5.924,-0.017536662523348633
5.928,-0.017622679585935223
5.932,-0.01770727825648923
5.936,-0.017758388450748338
5.94,-0.017759253910293645
5.944,-0.017690017146668888
5.948,-0.01758301269010854
5.952,-0.01749860634389794
5.956,-0.017448505852441693
5.96,-0.017397563941983055
5.964,-0.01733698177381139
5.968,-0.01726786521290126
5.972,-0.017240074345279657
5.976,-0.017275221619036392
5.98,-0.0173537380322303
5.984,-0.017422277620110227
5.988,-0.017423407525627713
5.992,-0.017354723694490235
5.996,-0.01725822495518823
6.0,-0.017167087256958553
6.0040000000000004,-0.017104702048067497
6.008,-0.017077800680534126
6.0120000000000005,-0.017059529867910928
6.016,-0.01705650075950234
6.0200000000000005,-0.017079988369940326
6.024,-0.01710847641330676
6.0280000000000005,-0.017119318698166058
6.032,-0.017131026442570658
6.0360000000000005,-0.01717268870346014
6.04,-0.017254234225062635
6.0440000000000005,-0.01734186200402522
6.048,-0.01739804475284156
6.0520000000000005,-0.017411988267738213
6.056,-0.01739114511702201
6.0600000000000005,-0.01735628632978038
6.064,-0.017339794517333647
6.0680000000000005,-0.01735784896507052
6.072,-0.0173996073881317
6.0760000000000005,-0.017452664866367762
6.08,-0.017488942045641984
6.0840000000000005,-0.017484518585743736
6.088,-0.017457929745268396
6.0920000000000005,-0.017443914108742967
6.096,-0.01744348137897031
6.1000000000000005,-0.01741206038936699
6.104,-0.0173424149365125
6.1080000000000005,-0.017247334589243084
6.112,-0.017152927377175574
6.1160000000000005,-0.017100446871969724
6.12,-0.01709330683072092
6.1240000000000006,-0.017092225006289284
6.128,-0.017078714221165286
6.132000000000001,-0.017053760137608863
6.136,-0.017031162027259114
6.140000000000001,-0.017047317272104894
6.144,-0.017107514791589753
6.148,-0.017152566769031694
6.152,-0.017202667260487945
6.156,-0.01726260033400063
6.16,-0.017314672149976746
6.164,-0.01733364013834478
6.168,-0.017298396702416344
6.172,-0.017257479698357545
6.176,-0.01724947419756343
6.18,-0.017277673754414767
6.184,-0.017321379461452895
6.188,-0.01735469965394731
6.192,-0.017353040856485466
6.196,-0.01732741363772714
6.2,-0.017288564120359912
6.204,-0.0172533447249744
6.208,-0.017244497805177905
6.212,-0.017239833939850402
6.216,-0.017236083615154062
6.22,-0.017246469129697774
6.224,-0.017264090847661992
6.228,-0.01726449953689172
6.232,-0.017260532847309055
6.236,-0.017254426549406038
6.24,-0.017262504171828928
6.244,-0.01728325116037343
6.248,-0.017292290404513327
6.252,-0.017290415242165156
6.256,-0.01730933514944734
6.26,-0.01732647605655305
6.264,-0.01735231964019771
6.268,-0.017344939193519655
6.272,-0.017316018420380563
6.276,-0.017331476489481506
6.28,-0.017337582787384523
6.284,-0.017332390030112665
6.288,-0.017324360488775628
6.292,-0.01728851603927406
6.296,-0.017240074345279657
6.3,-0.01721009578825185
6.304,-0.017194806002951382
6.308,-0.01720973518010797
6.312,-0.017245868116124642
6.316,-0.017273707064832097
6.32,-0.017292074039627
6.324,-0.017293732837088842
6.328,-0.017269019158961674
6.332,-0.017233270871631807
6.336,-0.017197450462673163
6.34,-0.01715441789083694
6.344,-0.01710559154815573
6.348,-0.01707356954497928
6.352,-0.017113380684063515
6.356,-0.01718781020496013
6.36,-0.017233919966290787
6.364,-0.017239112723562645
6.368,-0.017237958777502234
6.372,-0.017221611208313052
6.376,-0.017208605274590484
6.38,-0.01721536066715248
6.384,-0.01722887145227648
6.388,-0.01726425913146247
6.392,-0.017327822326956867
6.396,-0.01740261245599736
6.4,-0.01743424981048701
6.404,-0.017430259080361415
6.408,-0.017434826783517217
6.412,-0.017474734084773152
6.416,-0.017506539723063277
6.42,-0.01749810149249651
6.424,-0.017435139310575245
6.428,-0.0173424149365125
6.432,-0.017241300412968844
6.436,-0.017132829483290053
6.44,-0.01702858968916611
6.444,-0.016940985950746452
6.448,-0.016868864321970663
6.452,-0.016800468977348285
6.456,-0.016751402229237822
6.46,-0.01673003018657726
6.464,-0.016737386592712393
6.468,-0.016756354581080424
6.472,-0.016785924448878498
6.476,-0.016833765129299773
6.48,-0.016918171475510377
6.484,-0.016996639807618435
6.488,-0.017021954499318738
6.492,-0.017007458051934803
6.496,-0.01696906530488316
6.5,-0.01693302853103819
6.5040000000000004,-0.016911007393718647
6.508,-0.01688932282400006
6.5120000000000005,-0.016914469231899886
6.516,-0.01698240780620668
6.5200000000000005,-0.017061068462658143
6.524,-0.017163986026921194
6.5280000000000005,-0.01726553328023751
6.532,-0.01733916946321759
6.5360000000000005,-0.017401987401881303
6.54,-0.017463675435027533
6.5440000000000005,-0.017514881791458343
6.548,-0.01758000762224288
6.5520000000000005,-0.017649701156183223
6.556,-0.017682059726960627
6.5600000000000005,-0.017650710858986084
6.564,-0.01759529740754335
6.5680000000000005,-0.017552625443851007
6.572,-0.017504231830942452
6.5760000000000005,-0.017455068920660288
6.58,-0.017420113971246952
6.5840000000000005,-0.017379389291531554
6.588,-0.01731125839288136
6.5920000000000005,-0.01724091576428204
6.596,-0.017169154743650127
6.6000000000000005,-0.017098211101477676
6.604,-0.017038085703621593
6.6080000000000005,-0.017002481659549276
6.612,-0.016997697591507148
6.6160000000000005,-0.017051091637344157
6.62,-0.0171005189935985
6.6240000000000006,-0.017122684374175592
6.628,-0.017141964889601655
6.632000000000001,-0.017208124463731978
6.636,-0.017330562948850346
6.640000000000001,-0.017457424893866966
6.644,-0.017548250065038608
6.648000000000001,-0.01757397344596864
6.652,-0.017551928268106174
6.656000000000001,-0.017489062248356613
6.66,-0.017399126577273195
6.664,-0.01730298844611507
6.668,-0.01724077152102449
6.672,-0.017219856248679506
6.676,-0.017211586301913218
6.68,-0.01719675328692833
6.684,-0.0171895892051366
6.688,-0.017213918234576967
6.692,-0.0172896940258774
6.696,-0.01737739392646876
6.7,-0.017415281822118975
6.704,-0.017403045185770016
6.708,-0.01736176757356734
6.712,-0.01733921754430344
6.716,-0.01732647605655305
6.72,-0.017320826528965615
6.724,-0.017320057231592006
6.728,-0.017326163529495023
6.732,-0.017335395097978323
6.736,-0.01737059045282091
6.74,-0.017412036348824062
6.744,-0.017417902241297828
6.748,-0.017413550903028353
6.752,-0.01741956103875967
6.756,-0.017453722650256475
6.76,-0.017509953480158665
6.764,-0.017571569391676114
6.768,-0.017610202544157013
6.772,-0.01764128696615938
6.776,-0.017706076229342966
6.78,-0.017837626080230005
6.784,-0.017836375971997893
6.788,-0.017793175116361193
6.792,-0.017762162815987605
6.796,-0.01775781147771813
6.8,-0.01775747491011718
6.804,-0.017736078826913693
6.808,-0.01770422510753772
6.812,-0.01765996646801231
6.816,-0.017636935627889906
6.82,-0.017592075974791364
6.824,-0.017518776359412236
6.828,-0.017454443866544232
6.832,-0.017401073861250144
6.836,-0.017348352950615042
6.84,-0.01730039206747914
6.844,-0.017247695197386965
6.848,-0.01720487899043707
6.852,-0.017166726648814676
6.856,-0.017109462075566698
6.86,-0.017050538704856878
6.864,-0.017015199106756737
6.868,-0.016999091942996813
6.872,-0.01699560606427265
6.876,-0.016997673550964223
6.88,-0.016998923659196336
6.884,-0.01701031887654291
6.888,-0.01700834755202304
6.892,-0.01701118433608822
6.896,-0.017038518433394247
6.9,-0.01707179054480281
6.904,-0.017099172723194684
6.908,-0.017126771266472888
6.912,-0.0171554275936398
6.916,-0.017189925772737553
6.92,-0.017214903896836904
6.924,-0.017213028734488732
6.928,-0.017205552125638974
6.932,-0.01718639181292754
6.936,-0.0171645629999514
6.94,-0.017136627889072244
6.944,-0.017094316533523782
6.948,-0.017050706988657356
6.952,-0.017048735664137483
6.956,-0.01704868758305163
6.96,-0.017042797650034944
6.964,-0.01703779721710649
6.968,-0.017025127850984874
6.972,-0.017009910187313182
6.976,-0.016996086875131156
6.98,-0.01696209354743483
6.984,-0.016912738312809268
6.988,-0.01684830965776956
6.992,-0.016781789475495353
6.996,-0.016753950526787898
7.0,-0.01671897153683164
7.0040000000000004,-0.01667346278907412
7.008,-0.01662740110882931
7.0120000000000005,-0.01658198852324349
7.016,-0.01652498839596769
7.0200000000000005,-0.016490658500670413
7.024,-0.01646926241746693
7.0280000000000005,-0.016472315566418438
7.032,-0.016502726853218897
7.0360000000000005,-0.01652539708519742
7.04,-0.016532897734590102
7.0440000000000005,-0.01653458057259487
7.048,-0.016539388681179924
7.0520000000000005,-0.016555159277338895
7.056,-0.016577541022802313
7.0600000000000005,-0.01658273378007417
7.064,-0.01658222892867274
7.0680000000000005,-0.016549413587579758
7.072,-0.016495466609255466
7.0760000000000005,-0.01643788950894946
7.08,-0.016395337747971743
7.0840000000000005,-0.0163938712748533
7.088,-0.01643776930623483
7.0920000000000005,-0.0164686614038938
7.096,-0.016490706581756265
7.1000000000000005,-0.01649895248797963
7.104,-0.016487869797691082
7.1080000000000005,-0.016499240974494733
7.112,-0.0165098668944677
7.1160000000000005,-0.016520348571183115
7.12,-0.016551312790470854
7.1240000000000006,-0.016584945510023295
7.128,-0.016584584901879418
7.132000000000001,-0.01659126817281264
7.136,-0.016572516549330934
7.140000000000001,-0.01652970034238104
7.144,-0.016465271687341337
7.148000000000001,-0.01636793152903694
7.152,-0.01623844916484147
7.156000000000001,-0.016081536541168277
7.16,-0.015933903567064235
7.164000000000001,-0.01586094051928606
7.168,-0.015879836386025317
7.172,-0.01596623809729871
7.176,-0.01608329150080182
7.18,-0.016192531727854217
7.184,-0.016281337493420145
7.188,-0.016360406839101335
7.192,-0.016440894576815118
7.196,-0.016507366678003472
7.2,-0.016562371440216474
7.204,-0.01661516447248035
7.208,-0.01666831811288811
7.212,-0.016705845400394447
7.216,-0.01671837052325851
7.22,-0.016705003981392064
7.224,-0.016674760978392083
7.228,-0.01661699155374267
7.232,-0.016560953048183884
7.236,-0.016533907437392963
7.24,-0.016510708313470082
7.244,-0.016489624757324628
7.248,-0.016472315566418438
7.252,-0.01645301101044945
7.256,-0.016441423468759472
7.26,-0.01643108603530161
7.264,-0.016421710223560756
7.268,-0.016415748168915292
7.272,-0.016412238249648204
7.276,-0.01643132644073086
7.28,-0.01644099073898682
7.284,-0.01642779248092085
7.288,-0.016415772209458217
7.292,-0.016404833762427223
7.296,-0.016397188869776987
7.3,-0.01640012181601387
7.304,-0.016410964100873164
7.308,-0.016431302400187937
7.312,-0.016452073429275366
7.316,-0.01645072715887155
7.32,-0.016450126145298418
7.324,-0.01646173772753132
7.328,-0.01646995959321176
7.332,-0.016493783771250697
7.336,-0.016536095126799162
7.34,-0.016537345235031274
7.344,-0.016504602015567065
7.348,-0.016452794645563124
7.352,-0.01639500118037079
7.356,-0.016383918490082243
7.36,-0.01643762506297728
7.364,-0.01653421996445099
7.368,-0.01664858082714647
7.372,-0.016726015415908742
7.376,-0.016731352416438153
7.38,-0.01667238096464248
7.384,-0.016581099023155254
7.388,-0.016501116136842905
7.392,-0.01646546401168474
7.396,-0.016446664307117182
7.4,-0.01642702318354724
7.404,-0.01639403955865378
7.408,-0.016363003217737263
7.412,-0.016364061001625976
7.416,-0.016391226815131523
7.42,-0.01641788777723564
7.424,-0.016411228546845343
7.428,-0.01634759322972217
7.432,-0.016263331126769122
7.436,-0.01619349334957123
7.44,-0.016158297994728642
7.444,-0.016133271789543442
7.448,-0.016120410099078428
7.452,-0.016114928855291467
7.456,-0.016129665708104653
7.46,-0.016171640496052162
7.464,-0.016220659163076776
7.468,-0.01630703683380725
7.472,-0.016412574817249156
7.476,-0.016509794772838923
7.48,-0.01656821329214731
7.484,-0.016572925238560663
7.488,-0.01654910106052173
7.492,-0.016506717583344488
7.496,-0.016445318036713365
7.5,-0.01640168445130401
7.5040000000000004,-0.016365287069315164
7.508,-0.01632073994327465
7.5120000000000005,-0.016286001358747644
7.516,-0.01626212909962286
7.5200000000000005,-0.016251142571506012
7.524,-0.01625566219357596
7.5280000000000005,-0.01626710549200839
7.532,-0.016273860884570387
7.5360000000000005,-0.016288453494126023
7.54,-0.016329202214384345
7.5440000000000005,-0.01637156165101866
7.548,-0.01638601001731674
7.5520000000000005,-0.01637636975960371
7.556,-0.016362450285249984
7.5600000000000005,-0.016351920527448716
7.564,-0.016340116620872414
7.5680000000000005,-0.01631292676682394
7.572,-0.016264485072829536
7.5760000000000005,-0.016191473943965504
7.58,-0.016140219506448845
7.5840000000000005,-0.01610872639521675
7.588,-0.016102956664914687
7.5920000000000005,-0.016109111043903553
7.596,-0.016114255720089562
7.6000000000000005,-0.016118871504331212
7.604,-0.016124136383231843
7.6080000000000005,-0.016139305965817686
7.612,-0.016151638764338345
7.6160000000000005,-0.016165149549462344
7.62,-0.016176063955950414
7.6240000000000006,-0.016180271050962335
7.628,-0.016189069889672978
7.632000000000001,-0.01619409436314436
7.636,-0.01618565613257759
7.640000000000001,-0.01617171261768094
7.644,-0.01614553246643533
7.648000000000001,-0.01613791161432802
7.652,-0.01611923211247509
7.656000000000001,-0.016103221110886863
7.66,-0.016104423138033126
7.664000000000001,-0.016122092937083197
7.668,-0.016143320736486205
7.672000000000001,-0.016156927683781904
7.676,-0.016154211102431346
7.68,-0.016146013277293834
7.684,-0.016140171425362993
7.688,-0.016153970697002095
7.692,-0.01620419139117297
7.696,-0.016253787031227793
7.7,-0.016266768924407433
7.704,-0.016259196153385978
7.708,-0.01623840108375562
7.712,-0.016222197757823992
7.716,-0.016235420056432887
7.72,-0.01625784988298216
7.724,-0.016278188182296933
7.728,-0.016303959644312818
7.732,-0.016289246832042557
7.736,-0.01625323409874051
7.74,-0.01623027538024688
7.744,-0.01619373375500048
7.748,-0.016162649332998116
7.752,-0.016164548535889212
7.756,-0.01618527148389079
7.76,-0.016198061052727027
7.764,-0.016215514486890768
7.768,-0.016254532288058475
7.772,-0.01630420004974207
7.776,-0.016348578891982105
7.78,-0.016364565853027407
7.784,-0.016334370931113274
7.788,-0.016257922004610938
7.792,-0.016168803711986982
7.796,-0.016076127419010093
7.8,-0.0159904950051103
7.804,-0.015947077784587278
7.808,-0.015962006961743866
7.812,-0.01601282866948787
7.816,-0.016054082241147627
7.82,-0.016060621268823298
7.824,-0.016071199107710415
7.828,-0.016104014448803397
7.832,-0.016104086570432174
7.836,-0.016073434878202463
7.84,-0.01603167645514128
7.844,-0.016006313682355125
7.848,-0.016005664587696145
7.852,-0.016051798389569726
7.856,-0.016117236747412292
7.86,-0.01616654390095201
7.864,-0.01619313274142735
7.868,-0.016193204863056126
7.872,-0.016184934916289834
7.876,-0.016152624426598282
7.88,-0.016084541609033935
7.884,-0.01597407531429235
7.888,-0.01585824797847843
7.892,-0.01576662946939025
7.896,-0.015746050764646226
7.9,-0.01575958559031315
7.904,-0.015801680580975284
7.908,-0.01585952212725347
7.912,-0.015901304590857576
7.916,-0.015968497908333688
7.92,-0.01604638926741154
7.924,-0.01611228439556969
7.928,-0.016149354912760445
7.932,-0.016170318266191273
7.936,-0.016170582712163453
7.94,-0.016145195898834373
7.944,-0.016102067164826452
7.948,-0.01604708644315637
7.952,-0.01596448313766517
7.956,-0.015862671438376677
7.96,-0.015765691888216166
7.964,-0.01572220254606436
7.968,-0.015704893355158175
7.972,-0.015727010654649414
7.976,-0.015780500862658125
7.98,-0.015829423367511038
7.984,-0.0158578392892487
7.988,-0.015876542831644556
7.992,-0.01589753022561831
7.996,-0.01592964839096646
8.0,-0.015961045340026854
8.004,-0.01597705634161508
8.008000000000001,-0.016032349590343185
8.012,-0.01608954204196239
8.016,-0.016117477152841547
8.02,-0.01610959185476206
8.024000000000001,-0.016062063701398815
8.028,-0.016003212452317766
8.032,-0.015957655623474395
8.036,-0.01592868676924945
8.040000000000001,-0.015906497348129434
8.044,-0.0158850531838401
8.048,-0.015863849424980016
8.052,-0.01586348881683614
8.056000000000001,-0.0158829616566056
8.06,-0.015915127903039603
8.064,-0.015942534121974404
8.068,-0.01597340217909044
8.072000000000001,-0.01599628877595529
8.076,-0.01602040144050933
8.08,-0.016017636778072924
8.084,-0.01600907834479153
8.088000000000001,-0.016026892387099152
8.092,-0.01606117420131058
8.096,-0.016102572016227883
8.1,-0.01615603818369367
8.104000000000001,-0.016171376050079986
8.108,-0.0161475999531269
8.112,-0.01608894102838926
8.116,-0.016029608968449707
8.120000000000001,-0.016006818533756555
8.124,-0.016007683993301866
8.128,-0.015993379870261334
8.132,-0.015931259107342454
8.136000000000001,-0.015829639732397364
8.14,-0.015751988778748765
8.144,-0.01575225322472094
8.148,-0.015809589919597695
8.152000000000001,-0.01586884985790847
8.156,-0.01589774659050464
8.16,-0.01587808142639177
8.164,-0.015829880137826616
8.168000000000001,-0.015771125050917274
8.172,-0.015739367493713
8.176,-0.015759249022712193
8.18,-0.0158238700020953
8.184000000000001,-0.015887337035418
8.188,-0.015951044474169947
8.192,-0.01600513569575179
8.196,-0.016053937997890073
8.2,-0.016104783746177007
8.204,-0.016142335074226268
8.208,-0.0161955608362628
8.212,-0.01625376299068487
8.216,-0.016300642049389132
8.22,-0.016333120822881162
8.224,-0.016339491566756355
8.228,-0.01633242364713633
8.232,-0.016311436253162573
8.236,-0.016262345464509186
8.24,-0.016213591243456747
8.244,-0.016160678008478244
8.248,-0.01609389338023186
8.252,-0.016015304845409174
8.256,-0.015954001460949753
8.26,-0.015921522687457723
8.264,-0.015934095891407634
8.268,-0.01596010775885277
8.272,-0.01595969906962304
8.276,-0.015944457365408424
8.28,-0.015924263309351202
8.284,-0.015912170916259797
8.288,-0.015927941512418768
8.292,-0.015967800732588855
8.296,-0.016023694994890092
8.3,-0.01609314812340118
8.304,-0.01614627772326601
8.308,-0.01616180791399573
8.312,-0.01619866206630016
8.316,-0.01624183888139393
8.32,-0.016275495641489304
8.324,-0.016305762685032213
8.328,-0.01633586144477464
8.332,-0.016358844203811194
8.336,-0.01634869909469673
8.34,-0.016321893889335064
8.344,-0.016294487670400263
8.348,-0.016267994992096625
8.352,-0.016256671896378826
8.356,-0.016257152707237328
8.36,-0.016268331559697577
8.364,-0.016274942709002024
8.368,-0.016279486371614898
8.372,-0.016275375438774678
8.376,-0.0162499886254456
8.38,-0.016247584571153075
8.384,-0.0163227833894233
8.388,-0.01646844503900747
8.392,-0.01651330469210601
8.396,-0.016518665733178346
8.4,-0.016529796504552743
8.404,-0.016554822709737942
8.408,-0.016542994762618713
8.412,-0.016510323664783277
8.416,-0.016497389852689486
8.42,-0.01645976640301145
8.424,-0.016407694587035327
8.428,-0.016364301407055228
8.432,-0.016358315311866836
8.436,-0.016370359623872396
8.44,-0.016356752676576696
8.444,-0.016347304743207065
8.448,-0.016350550216501978
8.452,-0.01635845955512439
8.456,-0.016366609299176053
8.46,-0.01636733051546381
8.464,-0.016369494164327085
8.468,-0.016362762812308012
8.472,-0.016349492432613265
8.476,-0.016328889687326317
8.48,-0.01631085928013237
8.484,-0.01629722829229374
8.488,-0.016284510845086277
8.492,-0.016267129532551314
8.496,-0.01623977139470236
8.5,-0.016209456270073603
8.504,-0.01620027278267615
8.508000000000001,-0.016196498417436887
8.512,-0.016213807608343074
8.516,-0.016195632957891577
8.52,-0.016116683814925013
8.524000000000001,-0.016027421279043507
8.528,-0.01598111919336945
8.532,-0.015988283275161178
8.536,-0.016034994050064966
8.540000000000001,-0.016093508731545057
8.544,-0.016137935654870945
8.548,-0.016177145780382048
8.552,-0.016198686106843083
8.556000000000001,-0.016207220499581555
8.56,-0.016219961987331943
8.564,-0.016228736785499662
8.568,-0.01621181224328028
8.572000000000001,-0.016176256280293816
8.576,-0.016144065993316886
8.58,-0.01612343920748701
8.584,-0.01612084282885108
8.588000000000001,-0.016132550573255685
8.592,-0.016171448171708763
8.596,-0.01620758110772543
8.6,-0.01622825597464116
8.604000000000001,-0.016234482475258803
8.608,-0.016223039176826378
8.612,-0.016180463375305737
8.616,-0.016093460650459208
8.620000000000001,-0.015941211892113512
8.624,-0.01576571592875909
8.628,-0.015615702940905443
8.632,-0.015498721659031111
8.636000000000001,-0.01543071096309554
8.64,-0.015403545149589993
8.644,-0.015406838703970754
8.648,-0.015462252155413487
8.652000000000001,-0.01557024227423377
8.656,-0.015713163301924463
8.66,-0.015895102130782858
8.664,-0.01606045298502282
8.668000000000001,-0.016163058022227846
8.672,-0.01622337574442733
8.676,-0.0162457094088049
8.68,-0.016245901733148303
8.684000000000001,-0.01623291983996866
8.688,-0.01621311043259824
8.692,-0.01618952665998856
8.696,-0.016162024278882057
8.700000000000001,-0.016137118276411486
8.704,-0.016117621396099097
8.708,-0.016105144354320887
8.712,-0.016114279760632486
8.716,-0.016147840358556154
8.72,-0.016178948821101442
8.724,-0.016159692346218307
8.728,-0.01613567584383597
8.732,-0.016122453545227074
8.736,-0.016123463248029938
8.74,-0.01613654130338128
8.744,-0.01613658938446713
8.748,-0.016134834424833586
8.752,-0.016137863533242168
8.756,-0.016117212706869367
8.76,-0.016078339148959217
8.764,-0.016021387102769267
8.768,-0.015971719341085672
8.772,-0.01595111659579872
8.776,-0.015936812472758192
8.78,-0.015906641591386984
8.784,-0.01587916325082341
8.788,-0.015854353410524536
8.792,-0.015833654503065883
8.796,-0.015820913015315494
8.8,-0.015803459581151754
8.804,-0.015803699986581005
8.808,-0.015825769204986396
8.812,-0.01583432763826779
8.816,-0.015851011775057922
8.82,-0.015896736887701775
8.824,-0.015959482704736714
8.828,-0.01601939173770647
8.832,-0.016064732201663517
8.836,-0.01609120083942423
8.84,-0.016104543340747755
8.844,-0.016087330312013266
8.848,-0.016031099482111073
8.852,-0.01595164548774308
8.856,-0.015903804807321804
8.86,-0.01590418945600861
8.864,-0.015906521388672358
8.868,-0.015862623357290828
8.872,-0.015804301000154137
8.876,-0.015794300134297227
8.88,-0.015857502721647748
8.884,-0.01596162231305706
8.888,-0.01606066934990915
8.892,-0.01613548351949257
8.896,-0.016209792837674555
8.9,-0.016217101162723836
8.904,-0.016158538400157896
8.908,-0.016091080636709606
8.912,-0.016029608968449707
8.916,-0.01601249210188692
8.92,-0.016032277468714412
8.924,-0.016064131188090386
8.928,-0.01608963820413409
8.932,-0.016101562313425022
8.936,-0.016103509597401967
8.94,-0.016134594019404334
8.944,-0.016178083361556135
8.948,-0.016185487848777116
8.952,-0.01616298590059907
8.956,-0.016109495692590358
8.96,-0.016081849068226305
8.964,-0.016090239217707223
8.968,-0.016094109745118188
8.972,-0.016097956231986232
8.976,-0.016105096273235035
8.98,-0.016106178097666672
8.984,-0.016155797778264414
8.988,-0.016214432662459134
8.992,-0.01619962368801717
8.996,-0.016112188233397988
9.0,-0.016020112953994227
9.004,-0.015962583934774073
9.008000000000001,-0.015926090390613525
9.012,-0.01590219409094581
9.016,-0.015910175551197
9.02,-0.015960949177855156
9.024000000000001,-0.015972464597916354
9.028,-0.01594635656829952
9.032,-0.015917604078960906
9.036,-0.01589560698218429
9.040000000000001,-0.01589296252246251
9.044,-0.015900943982713696
9.048,-0.015899429428509405
9.052,-0.01589397222526537
9.056000000000001,-0.01590291530723357
9.06,-0.015967944975846405
9.064,-0.01608305109537257
9.068,-0.016196402255265186
9.072000000000001,-0.016301723873820766
9.076,-0.016348987581211834
9.08,-0.016348386567638703
9.084,-0.016295785859718227
9.088000000000001,-0.01621195648653783
9.092,-0.01614668641249574
9.096,-0.01615942790024613
9.1,-0.016223087257912227
9.104000000000001,-0.0162841502369424
9.108,-0.01632562017348848
9.112,-0.016347905756780197
9.116,-0.01633333718776749
9.120000000000001,-0.016306964712178476
9.124,-0.01629643495437721
9.128,-0.01628739571023731
9.132,-0.01626414850522858
9.136000000000001,-0.016221164014478207
9.14,-0.016178179523727836
9.144,-0.016156470913466323
9.148,-0.016134473816689705
9.152000000000001,-0.016108870638474302
9.156,-0.01607836318950214
9.16,-0.016044586226692144
9.164,-0.01602847906293222
9.168000000000001,-0.016035090212236668
9.172,-0.016073074270058583
9.176,-0.01614572479077873
9.18,-0.016242944746368494
9.184000000000001,-0.016336198012375593
9.188,-0.016390601761015467
9.192,-0.016404473154283342
9.196,-0.016400049694385094
9.200000000000001,-0.016376081273088608
9.204,-0.016365719799087818
9.208,-0.01637576874603058
9.212,-0.016404569316455044
9.216000000000001,-0.016434716157283324
9.22,-0.016431374521816713
9.224,-0.01638531284157191
9.228,-0.01633078889021741
9.232,-0.016293934737912984
9.236,-0.01626273011319599
9.24,-0.01623748754312446
9.244,-0.016242079286823186
9.248,-0.016272610776338275
9.252,-0.016286313885805672
9.256,-0.016265254370203142
9.26,-0.01622323150116978
9.264,-0.01618116055105057
9.268,-0.016180775902363765
9.272,-0.016192411525139592
9.276,-0.01619171434939476
9.28,-0.016157336373011633
9.284,-0.016110433273764442
9.288,-0.016111947827968737
9.292,-0.016188997768044205
9.296,-0.01630054588721743
9.3,-0.016405506897629128
9.304,-0.01645793932174913
9.308,-0.016451640699502713
9.312,-0.016417455047462986
9.316,-0.016393751072138675
9.32,-0.016392020153048057
9.324,-0.016385697490258713
9.328,-0.016364445650312778
9.332,-0.016367474758721363
9.336,-0.016419498493611632
9.34,-0.016472387688047214
9.344,-0.016486908175974074
9.348,-0.01647813337780635
9.352,-0.016470199998641015
9.356,-0.016458516294779336
9.36,-0.01640656468151784
9.364,-0.016344540080770662
9.368,-0.016273259870997255
9.372,-0.016210514053962316
9.376,-0.01613485846537651
9.38,-0.01608122401411025
9.384,-0.016032445752514887
9.388,-0.01600624156072635
9.392,-0.016011482399084058
9.396,-0.015990302680766903
9.4,-0.01595215033914451
9.404,-0.015923902701207325
9.408,-0.01592685968798713
9.412,-0.015988018829189002
9.416,-0.016087907285043473
9.42,-0.01617084715813563
9.424,-0.016222197757823992
9.428,-0.016230467704590284
9.432,-0.016202508553168203
9.436,-0.01615618242695122
9.44,-0.016115770274293853
9.444,-0.016117477152841547
9.448,-0.01617632840192259
9.452,-0.016247103760294566
9.456,-0.016303358630739687
9.46,-0.01634545362140182
9.464,-0.016360671285073514
9.468,-0.016372835799793695
9.472,-0.016389303571697503
9.476,-0.016408439843866012
9.48,-0.01642779248092085
9.484,-0.016456689213517017
9.488,-0.01644305822567839
9.492,-0.016408055195179207
9.496,-0.01636257048796461
9.5,-0.01631917730798451
9.504,-0.01626761034340982
9.508000000000001,-0.016197532160782672
9.512,-0.01610894276010308
9.516,-0.016037734671958445
9.52,-0.01599318754591793
9.524000000000001,-0.015976118760440996
9.528,-0.015967464164987902
9.532,-0.015959530785822563
9.536,-0.015943880392378217
9.540000000000001,-0.01592575382301257
9.544,-0.015927965552961693
9.548,-0.01595943462365086
9.552,-0.01602172367037022
9.556000000000001,-0.016100119880849504
9.56,-0.01617012594184787
9.564,-0.016202292188281873
9.568,-0.016177049618210346
9.572000000000001,-0.016116611693296236
9.576,-0.016060981876967178
9.58,-0.016066366958582438
9.584,-0.01613476230320481
9.588000000000001,-0.016225250906775502
9.592,-0.016297709103152248
9.596,-0.016285232061374038
9.6,-0.016214456703002058
9.604000000000001,-0.016146974899010843
9.608,-0.01607122314825334
9.612,-0.015977801598445765
9.616,-0.01586615731710084
9.620000000000001,-0.01577256748349279
9.624,-0.015703859611812386
9.628,-0.015679770987801274
9.632,-0.01568085281223291
9.636000000000001,-0.015723933465154983
9.64,-0.015780260457228874
9.644,-0.015796608026418052
9.648,-0.015783313606180384
9.652000000000001,-0.015750137656943518
9.656,-0.015714124923641475
9.66,-0.015694531881157384
9.664,-0.0157027297062949
9.668000000000001,-0.015722899721809194
9.672,-0.01575388798163986
9.676,-0.01579768985084969
9.68,-0.015854113005095285
9.684000000000001,-0.015925104728353588
9.688,-0.015976791895642904
9.692,-0.01600922258804908
9.696,-0.01602578652212459
9.700000000000001,-0.01604223025348547
9.704,-0.016062784917686573
9.708,-0.0160515820246834
9.712,-0.016015905858982306
9.716000000000001,-0.015971238530227166
9.72,-0.01588630329207221
9.724,-0.015780020051799622
9.728,-0.015687031231764702
9.732,-0.015618635887142325
9.736,-0.01559531656050482
9.74,-0.015612193021638354
9.744,-0.015623924806585882
9.748,-0.01562180923880846
9.752,-0.015608610980742491
9.756,-0.015587166816453155
9.76,-0.015580122937376054
9.764,-0.015584185789130423
9.768,-0.015609332197030248
9.772,-0.015669289311085858
9.776,-0.015717370396936384
9.78,-0.015722803559637493
9.784,-0.015728549249396633
9.788,-0.01572131304597613
9.792,-0.015696815732735285
9.796,-0.015688401542711443
9.8,-0.01567962674454372
9.804,-0.015661716540064402
9.808,-0.01562459794178779
9.812,-0.015590580573548543
9.816,-0.015590051681604187
9.82,-0.015611640089151073
9.824,-0.015622530455096217
9.828,-0.01563322849669796
9.832,-0.015647196052137536
9.836,-0.01566335129698332
9.84,-0.015662197350922905
9.844,-0.01564479199784501
9.848,-0.015609668764631202
9.852,-0.0156051010614754
9.856,-0.01560673581839432
9.86,-0.015603322061298932
9.864,-0.015589306424773504
9.868,-0.01556060201652074
9.872,-0.015547788407141574
9.876,-0.015535215203191661
9.88,-0.015513218106415046
9.884,-0.015507135849054953
9.888,-0.015515670241793423
9.892,-0.01554968761003267
9.896,-0.015597768695883196
9.9,-0.0156255595635048
9.904,-0.015621929441523085
9.908,-0.01560805804825521
9.912,-0.015588921776086699
9.916,-0.015575459072048553
9.92,-0.015565338003477017
9.924,-0.015540744528064473
9.928,-0.015533340040843491
9.932,-0.0155410570551225
9.936,-0.015516006809394377
9.94,-0.01547879204894607
9.944,-0.015450929059695686
9.948,-0.015439269396376933
9.952,-0.015445495896994578
9.956,-0.015476676481168645
9.96,-0.01552999840537688
9.964,-0.015599403452802115
9.968,-0.01563986368654533
9.972,-0.015657701769395883
9.976,-0.015665707270189993
9.98,-0.015646691200736106
9.984,-0.015637315388995255
9.988,-0.015648806768513532
9.992,-0.015650345363260747
9.996,-0.015640825308262343
10.0,-0.015614068183986526
10.004,-0.01558399346478702
10.008000000000001,-0.015563703246558099
10.012,-0.015529854162119328
10.016,-0.015490547874436522
10.02,-0.015454679384392028
10.024000000000001,-0.015431408138840372
10.028,-0.015418810894347535
10.032,-0.015437875044887268
10.036,-0.015465209142193294
10.040000000000001,-0.015482782779071662
10.044,-0.01552105532340868
10.048,-0.015571588544637584
10.052,-0.015612072818923729
10.056000000000001,-0.01562935796928699
10.06,-0.015616592440993678
10.064,-0.015584426194559676
10.068,-0.01553740289259786
10.072000000000001,-0.015474945562078027
10.076,-0.015405444352481088
10.08,-0.015353540820305446
10.084,-0.0153494058469223
10.088000000000001,-0.015382389471815762
10.092,-0.01541421915064881
10.096,-0.015431648544269625
10.1,-0.015437923125973118
10.104000000000001,-0.015430037827893633
10.108,-0.015413281569474723
10.112,-0.01538950547252164
10.116,-0.015359767320923088
10.120000000000001,-0.015349574130722776
10.124,-0.01536224349684439
10.128,-0.015396982081371396
10.132,-0.015451890681412696
10.136000000000001,-0.015515838525593899
10.14,-0.015561275151722646
10.144,-0.01559171047906603
10.148,-0.015572189558210716
10.152000000000001,-0.015521896742411065
10.156,-0.015438259693574072
10.16,-0.015323442060563016
10.164,-0.015205643400229223
10.168000000000001,-0.015119842702528958
10.172,-0.015069838373244411
10.176,-0.01507238667079449
10.18,-0.015100105416787317
10.184000000000001,-0.015128088608752324
10.188,-0.015159389395641017
10.192,-0.015183694384538458
10.196,-0.015193767372024143
10.200000000000001,-0.015186218641545611
10.204,-0.015169125815525748
10.208,-0.015172203005020183
10.212,-0.015212687279306325
10.216000000000001,-0.015259566338010589
10.22,-0.015289352570694992
10.224,-0.015277861191176717
10.228,-0.015249805877582932
10.232000000000001,-0.015221582280188673
10.236,-0.015198719723866747
10.24,-0.015214586482197421
10.244,-0.015277981393891343
10.248,-0.015345919968198136
10.252,-0.015383952107105903
10.256,-0.015426359624826066
10.26,-0.015474584953934148
10.264,-0.015500548740293432
10.268,-0.015487302401141611
10.272,-0.0154634061014739
10.276,-0.015452058965213174
10.28,-0.01545071269480936
10.284,-0.01544167345066946
10.288,-0.0154340045174763
10.292,-0.015428162665545461
10.296,-0.015409531244778382
10.3,-0.015389216986006536
10.304,-0.015364238861907187
10.308,-0.015331110993756175
10.312,-0.015295410787512159
10.316,-0.015248531728807893
10.32,-0.015200979534901722
10.324,-0.015162442544592526
10.328,-0.015124482527313535
10.332,-0.015098398538239624
10.336,-0.015070775954418497
10.34,-0.015020555260247617
10.344,-0.014985287783776256
10.348,-0.015003005663912175
10.352,-0.015042432154309606
10.356,-0.015072627076223742
10.36,-0.015072338589708639
10.364,-0.01506363591316969
10.368,-0.01510587514708938
10.372,-0.015213624860480411
10.376,-0.01534666522502882
10.38,-0.0154816769140971
10.384,-0.015560890503035843
10.388,-0.015546874866510414
10.392,-0.015500236213235404
10.396,-0.015448621167574861
10.4,-0.015416262596797457
10.404,-0.015416575123855485
10.408,-0.015396212783997788
10.412,-0.015330750385612296
10.416,-0.015221077428787243
10.42,-0.015113471958653764
10.424,-0.015067674724381138
10.428,-0.015092821132280963
10.432,-0.015131550446933562
10.436,-0.01516109627418871
10.44,-0.01515982212541367
10.444,-0.015151624300276157
10.448,-0.015146840232234029
10.452,-0.015134483393170445
10.456,-0.015097028227292884
10.46,-0.015064621575429624
10.464,-0.015051471398449506
10.468,-0.01507796407675315
10.472,-0.015142080204734827
10.476,-0.015204200967653708
10.48,-0.01525016648572681
10.484,-0.015276731285659229
10.488,-0.015293102895391333
10.492,-0.015330461899097193
10.496,-0.015387053337143262
10.5,-0.015411045798982675
10.504,-0.01541010821780859
10.508000000000001,-0.015369167173206867
10.512,-0.01530743105897479
10.516,-0.015238602984579758
10.52,-0.015183069330422402
10.524000000000001,-0.015166745801776148
10.528,-0.01519119503393114
10.532,-0.015216076995858788
10.536,-0.01521312000907898
10.540000000000001,-0.015217855996035257
10.544,-0.015226678875288828
10.548,-0.015242281187647325
10.552,-0.015243964025652092
10.556000000000001,-0.015213264252336533
10.56,-0.015197157088576605
10.564,-0.015230861929757825
10.568,-0.015287381246175121
10.572000000000001,-0.01533630375102803
10.576,-0.015330702304526446
10.58,-0.015292093192588473
10.584,-0.015257859459462895
10.588000000000001,-0.015239660768468472
10.592,-0.015230693645957348
10.596,-0.015217519428434302
10.6,-0.015218793577209342
10.604000000000001,-0.015225380685970864
10.608,-0.015224923915655284
10.612,-0.01522737605103366
10.616,-0.015244036147280869
10.620000000000001,-0.015237160552004244
10.624,-0.01511907340515535
10.628,-0.014908526330215891
10.632,-0.01475762384227401
10.636000000000001,-0.014789165034591956
10.64,-0.015033344829083858
10.644,-0.015294809773939027
10.648,-0.015356065077312598
10.652000000000001,-0.01520302298105037
10.656,-0.014996154109178475
10.66,-0.01493953863058948
10.664,-0.015090945969932792
10.668000000000001,-0.015309041775350783
10.672,-0.015450279965036704
10.676,-0.01551309790370042
10.68,-0.015518386823143977
10.684000000000001,-0.015480955697809343
10.688,-0.015403953838819722
10.692,-0.015321062046813414
10.696,-0.015281371110443805
10.700000000000001,-0.015288078421919954
10.704,-0.015304305788394507
10.708,-0.015320004262924703
10.712,-0.0152901218680686
10.716000000000001,-0.015243555336422363
10.72,-0.015195522331657687
10.724,-0.015134170866112415
10.728,-0.0150756321440894
10.732000000000001,-0.015041109924448718
10.736,-0.015045172776203087
10.74,-0.015094552051371581
10.744,-0.015153932192396982
10.748000000000001,-0.015187444709234799
10.752,-0.015182540438478045
10.756,-0.015152970570679972
10.76,-0.015145542042916064
10.764,-0.015159485557812718
10.768,-0.01518571379014418
10.772,-0.015216245279659264
10.776,-0.01523225628124749
10.78,-0.015251681039931103
10.784,-0.015268317095635387
10.788,-0.015283558799850003
10.792,-0.015294064517108344
10.796,-0.015293439462992288
10.8,-0.015272187623046354
10.804,-0.015243507255336512
10.808,-0.015224082496652901
10.812,-0.015195570412743538
10.816,-0.01514510931314341
10.82,-0.01511003416101545
10.824,-0.015084839672029775
10.828,-0.01512090048641767
10.832,-0.015207710886920797
10.836,-0.015276106231543171
10.84,-0.01531829738437701
10.844,-0.015327793398832487
10.848,-0.015295819476741888
10.852,-0.015267307392832526
10.856,-0.015242569674162428
10.86,-0.015209033116781685
10.864,-0.015173861802482026
10.868,-0.01515744211166407
10.872,-0.015178573748895377
10.876,-0.015208287859951002
10.88,-0.015214706684912047
10.884,-0.015181795181647362
10.888,-0.015136094109546437
10.892,-0.015098326416610849
10.896,-0.015091282537533746
10.9,-0.015107437782379524
10.904,-0.0151213091756474
10.908,-0.015117029959006703
10.912,-0.015071905859935984
10.916,-0.015028777125928058
10.92,-0.015029330058415339
10.924,-0.015087604334466181
10.928,-0.015176193735145775
10.932,-0.015286587908258587
10.936,-0.015373061741160758
10.94,-0.015413521974903976
10.944,-0.015389721837407966
10.948,-0.015328755020549499
10.952,-0.015252258012961309
10.956,-0.015167587220778532
10.96,-0.015072290508622788
10.964,-0.014975262877376421
10.968,-0.014870926921080779
10.972,-0.014770293208395624
10.976,-0.014709206188822531
10.98,-0.014678241969534793
10.984,-0.014668553630735909
10.988,-0.014674683969181852
10.992,-0.014716490473328885
10.996,-0.014810945766482245
11.0,-0.014954083159059264
11.004,-0.015105851106546456
11.008000000000001,-0.015221798645075
11.012,-0.01526199443284604
11.016,-0.01523879530892316
11.02,-0.015201099737616349
11.024000000000001,-0.015166553477432745
11.028,-0.015153763908596506
11.032,-0.01515378794913943
11.036,-0.015150398232586968
11.040000000000001,-0.01513602198791766
11.044,-0.015115731769688738
11.048,-0.015080175806702274
11.052,-0.015053034033739648
11.056000000000001,-0.01504824996569752
11.06,-0.015085512807231683
11.064,-0.015153619665338954
11.068,-0.015230308997270544
11.072000000000001,-0.01527997675895414
11.076,-0.015317455965374625
11.08,-0.015323658425449343
11.084,-0.015280193123840467
11.088000000000001,-0.015223192996564666
11.092,-0.015183646303452607
11.096,-0.01516566397734451
11.1,-0.015142008083106052
11.104000000000001,-0.015126525973462182
11.108,-0.01513003589272927
11.112,-0.015149268327069481
11.116,-0.015153884111311132
11.120000000000001,-0.015134483393170445
11.124,-0.01509157102404885
11.128,-0.015041590735307222
11.132,-0.015002909501740474
11.136000000000001,-0.014973652161000429
11.14,-0.014963579173514744
11.144,-0.014994495311716632
11.148,-0.015035724842833458
11.152000000000001,-0.015086450388405769
11.156,-0.015128497297982053
11.16,-0.015175472518858018
11.164,-0.01524961355323953
11.168000000000001,-0.015318201222205308
11.172,-0.015381644214985078
11.176,-0.015438812626061353
11.18,-0.01546431964210506
11.184000000000001,-0.015383230890818144
11.188,-0.015283198191706125
11.192,-0.015322576601017705
11.196,-0.01539097194564008
11.200000000000001,-0.015293535625163987
11.204,-0.015035268072517878
11.208,-0.014759474964079256
11.212,-0.014650643426256587
11.216000000000001,-0.014738944340421082
11.22,-0.014855156324921804
11.224,-0.014850179932536274
11.228,-0.014761710734571306
11.232000000000001,-0.014727525082531582
11.236,-0.014796833967785115
11.24,-0.014897347477755642
11.244,-0.014948577874729379
11.248000000000001,-0.014929706048533048
11.252,-0.01490934370867535
11.256,-0.014934177589517147
11.26,-0.015019641719616457
11.264,-0.015110010120472526
11.268,-0.015186603290232414
11.272,-0.015237521160148123
11.276,-0.015269326798438248
11.28,-0.015292718246704529
11.284,-0.015296684936287197
11.288,-0.015296853220087675
11.292,-0.015283703043107555
11.296,-0.01524819516120694
11.3,-0.015194873236998705
11.304,-0.015138377961124336
11.308,-0.015085536847774608
11.312,-0.015052168574194339
11.316,-0.015031902396508342
11.32,-0.015006924272408993
11.324,-0.01498343666197101
11.328,-0.014985287783776256
11.332,-0.015012189151309625
11.336,-0.015041590735307222
11.34,-0.01501947343581598
11.344,-0.014991297919507571
11.348,-0.014999832312246041
11.352,-0.015007068515666544
11.356,-0.01498983144638913
11.36,-0.014969300822730956
11.364,-0.014950669401963877
11.368,-0.014942784103884391
11.372,-0.014939754995475807
11.376,-0.014925739358950378
11.38,-0.014917733858156266
11.384,-0.014908309965329563
11.388,-0.014904199032489343
11.392,-0.014925739358950378
11.396,-0.014963170484285014
11.4,-0.015000433325819173
11.404,-0.015029089652986086
11.408,-0.01503226300465222
11.412,-0.015006082853406608
11.416,-0.014973531958285803
11.42,-0.014950356874905849
11.424,-0.014951582942595036
11.428,-0.014970574971505996
11.432,-0.014990817108649067
11.436,-0.014992451865567984
11.44,-0.014989206392273075
11.444,-0.014970743255306472
11.448,-0.014943625522886774
11.452,-0.014944274617545756
11.456,-0.014975887931492479
11.46,-0.01500476062354572
11.464,-0.015008438826613285
11.468,-0.014997308055238887
11.472,-0.01498100856713556
11.476,-0.0149710557823645
11.48,-0.01497663318832316
11.484,-0.014993076919684042
11.488,-0.015015939476005966
11.492,-0.01503353715342726
11.496,-0.015020002327760336
11.5,-0.0149961781497214
11.504,-0.01497932572913079
11.508000000000001,-0.014957953686470233
11.512,-0.01492862422410141
11.516,-0.014926220169808884
11.52,-0.014943577441800924
11.524000000000001,-0.014966127471064822
11.528,-0.014995096325289763
11.532,-0.015002236366538567
11.536,-0.015004904866803271
11.540000000000001,-0.01499653875786528
11.544,-0.01498786012186926
11.548,-0.01498338858088516
11.552,-0.014996057947006773
11.556000000000001,-0.015040268505446333
11.56,-0.015109962039386676
11.564,-0.015143835164368371
11.568,-0.01512409787862673
11.572000000000001,-0.015096403173176827
11.576,-0.01505962114250117
11.58,-0.015020915868391497
11.584,-0.014985816675720612
11.588000000000001,-0.014941245509137174
11.592,-0.014907781073385208
11.596,-0.014897852329157074
11.6,-0.014898453342730206
11.604000000000001,-0.014929225237674542
11.608,-0.014950140510019522
11.612,-0.014954179321230965
11.616,-0.014948866361244482
11.620000000000001,-0.014958242172985334
11.624,-0.014982282715910598
11.628,-0.01501577119220549
11.632,-0.015051038668676851
11.636000000000001,-0.015079478630957441
11.64,-0.015081257631133911
11.644,-0.01505053381727542
11.648,-0.015035388275232505
11.652000000000001,-0.015033416950712633
11.656,-0.01504591803303377
11.66,-0.015066112089090995
11.664,-0.015079719036386694
11.668000000000001,-0.01508801302369591
11.672,-0.015105153930801623
11.676,-0.015097773484123568
11.68,-0.015051351195734879
11.684000000000001,-0.014996514717322353
11.688,-0.014947015239439237
11.692,-0.014909992803334332
11.696,-0.014890279558135615
11.700000000000001,-0.014847487391728646
11.704,-0.014798372562532332
11.708,-0.014746613273614241
11.712,-0.01470033522848311
11.716000000000001,-0.01468901213276531
11.72,-0.014710744783569747
11.724,-0.014763345491490224
11.728,-0.014827437578928975
11.732000000000001,-0.014888404395787445
11.736,-0.014933240008343061
11.74,-0.014967425660382786
11.744,-0.014966728484637953
11.748000000000001,-0.014929730089075973
11.752,-0.014858570082017191
11.756,-0.014780750844568114
11.76,-0.014736660488843182
11.764000000000001,-0.014732212988402008
11.768,-0.014734953610295488
11.772,-0.014769235424506913
11.776,-0.014840563715366168
11.78,-0.014922109236968665
11.784,-0.015012790164882757
11.788,-0.015083685725969362
11.792,-0.015103759579311957
11.796,-0.015099071673441532
11.8,-0.01509111425373327
11.804,-0.015103855741483659
11.808,-0.015146311340289674
11.812,-0.015180016181470893
11.816,-0.01518489641168472
11.82,-0.015155134219543245
11.824,-0.015101283403390656
11.828,-0.015067217954065558
11.832,-0.015056303547577483
11.836,-0.015045749749233292
11.84,-0.015024930639060016
11.844,-0.014993774095428875
11.848,-0.014962136740939228
11.852,-0.014946101698808077
11.856,-0.01493588446806484
11.86,-0.014951799307481365
11.864,-0.014987980324583886
11.868,-0.015008126299555256
11.872,-0.015036950910522647
11.876,-0.01507289152219592
11.88,-0.015090224753645035
11.884,-0.015092460524137085
11.888,-0.01510399998474121
11.892,-0.0151030383630242
11.896,-0.015109962039386676
11.9,-0.015146792151148178
11.904,-0.015156552611575835
11.908,-0.015135997947374736
11.912,-0.015058322953183207
11.916,-0.014944587144603786
11.92,-0.014856863203469498
11.924,-0.014804262495549022
11.928,-0.014776784154985446
11.932,-0.01475250320663093
11.936,-0.014719183014136515
11.94,-0.014728895393478322
11.944,-0.01479361253503313
11.948,-0.014881288395081568
11.952,-0.014976008134207104
11.956,-0.015034835342745224
11.96,-0.015028079950183225
11.964,-0.015007933975211853
11.968,-0.014987763959697559
11.972,-0.014977763093840649
11.976,-0.014955838118692808
11.98,-0.014904150951403492
11.984,-0.01482787030870163
11.988,-0.014777817898331233
11.992,-0.014792458588972717
11.996,-0.014863065663544216
12.0,-0.014962881997769911
12.004,-0.015056928601693541
12.008000000000001,-0.015139195339583796
12.012,-0.015192012412390599
12.016,-0.015221005307158466
12.02,-0.015251224269615522
12.024000000000001,-0.015286347502829334
12.028,-0.015287188921831719
12.032,-0.015283654962021704
12.036,-0.015272091460874652
12.040000000000001,-0.015242834120134606
12.044,-0.015234756497711718
12.048,-0.015227928983520942
12.052,-0.01520170075118948
12.056000000000001,-0.015148018218837368
12.06,-0.015067073710808006
12.064,-0.014971776998652259
12.068,-0.014881312435624492
12.072000000000001,-0.014821739970255689
12.076,-0.014815970239953624
12.08,-0.014839457850391606
12.084,-0.014885351246835937
12.088000000000001,-0.01492903291333114
12.092,-0.014959636524475
12.096,-0.01497201740408151
12.1,-0.014977763093840649
12.104000000000001,-0.014958073889184858
12.108,-0.014957472875611727
12.112,-0.014959876929904253
12.116,-0.014961247240850992
12.120000000000001,-0.0149846627296602
12.124,-0.015017982922154614
12.128,-0.015057361331466195
12.132,-0.015086498469491618
12.136000000000001,-0.015088061104781761
12.14,-0.015060871250733283
12.144,-0.015019449395273055
12.148,-0.014983268378170534
12.152000000000001,-0.01495136657770871
12.156,-0.01493533153557756
12.16,-0.0149162433444949
12.164,-0.014916123141780273
12.168000000000001,-0.0149253787508065
12.172,-0.014943986131030654
12.176,-0.014989422757159402
12.18,-0.015043105289511515
12.184000000000001,-0.015080512374303228
12.188,-0.015100922795246776
12.192,-0.015119193607869976
12.196,-0.015123953635369178
12.200000000000001,-0.01511263053965138
12.204,-0.01509943228158541
12.208,-0.015103735538769033
12.212,-0.015123400702881897
12.216000000000001,-0.015114313377656148
12.22,-0.015068684427183999
12.224,-0.015012405516195954
12.228,-0.014967257376582308
12.232000000000001,-0.014956006402493286
12.236,-0.014975791769320778
12.24,-0.014995553095605343
12.244,-0.015022141936080684
12.248000000000001,-0.015031229261306435
12.252,-0.015024425787658585
12.256,-0.015030484004475752
12.26,-0.015036205653691964
12.264000000000001,-0.015023368003769874
12.268,-0.015017670395096586
12.272,-0.01500343839368483
12.276,-0.014969973957932864
12.280000000000001,-0.014948385550385976
12.284,-0.014922013074796963
12.288,-0.014893741396316853
12.292,-0.014882033651912251
12.296,-0.014885832057694443
12.3,-0.01491309403337169
12.304,-0.01494675079346706
12.308,-0.01497064709313477
12.312,-0.014994567433345408
12.316,-0.015022791030739667
12.32,-0.015056207385405782
12.324,-0.015081930766335818
12.328,-0.015075007089973343
12.332,-0.015051303114649028
12.336,-0.01502038697644714
12.34,-0.014993221162941594
12.344,-0.014988965986843822
12.348,-0.014989014067929672
12.352,-0.014954323564488517
12.356,-0.014890447841936093
12.36,-0.014830274362994156
12.364,-0.014778659317333616
12.368,-0.014740434854082447
12.372,-0.014694974187410776
12.376,-0.014641676303745464
12.38,-0.014616457774216864
12.384,-0.01464850381793624
12.388,-0.014685213726983119
12.392,-0.014717067446359092
12.396,-0.014745050638324098
12.4,-0.014784236723292278
12.404,-0.014834000647147572
12.408,-0.01486486870426361
12.412,-0.014892178761026711
12.416,-0.014938336603443217
12.42,-0.014993413487284996
12.424,-0.01504683157366493
12.428,-0.015064958143030579
12.432,-0.015033465031798483
12.436,-0.014978556431757183
12.44,-0.014892298963741338
12.444,-0.014802339252115
12.448,-0.014751325220027593
12.452,-0.014741396475799457
12.456,-0.014756734342185777
12.46,-0.01480041600868098
12.464,-0.014845540107751699
12.468,-0.014915137479520339
12.472,-0.014964011903287397
12.476,-0.014973123269056072
12.48,-0.014964180187087875
12.484,-0.014982643324054476
12.488,-0.015030171477417722
12.492,-0.015091234456447895
12.496,-0.015171169261674396
12.5,-0.015239949254983573
12.504,-0.015286635989344438
12.508000000000001,-0.015273606015078945
12.512,-0.015209513927640191
12.516,-0.015147513367435937
12.52,-0.015105803025460605
12.524000000000001,-0.015075151333230894
12.528,-0.015061015493990835
12.532,-0.01503637393749244
12.536,-0.014996779163294532
12.540000000000001,-0.014961535727366096
12.544,-0.014934682440918577
12.548,-0.014940476211763566
12.552,-0.014967377579296936
12.556000000000001,-0.014987739919154633
12.56,-0.015012501678367655
12.564,-0.015053851412199106
12.568,-0.015081425914934388
12.572000000000001,-0.015100441984388271
12.576,-0.015112894985623558
12.58,-0.015146792151148178
12.584,-0.015214346076768168
12.588000000000001,-0.015293559665706913
12.592,-0.015342049440787169
12.596,-0.01531250361353202
12.6,-0.015237232673633019
12.604000000000001,-0.015185329141457376
12.608,-0.015166048626031315
12.612,-0.015130011852186345
12.616,-0.015080776820275405
12.620000000000001,-0.015031205220763509
12.624,-0.015000914136677677
12.628,-0.015017261705866857
12.632,-0.015064934102487654
12.636000000000001,-0.015117174202264255
12.64,-0.015136238352803989
12.644,-0.015100538146559973
12.648,-0.01505464475011564
12.652000000000001,-0.01501384794877147
12.656,-0.014968651728071974
12.66,-0.014933528494858165
12.664,-0.014899607288790619
12.668000000000001,-0.014886937922669005
12.672,-0.014915882736351022
12.676,-0.014973724282629204
12.68,-0.015038369302555237
12.684000000000001,-0.015092749010652187
12.688,-0.015117390567150581
12.692,-0.015130108014358046
12.696,-0.015154605327598889
12.700000000000001,-0.015180833559930352
12.704,-0.015196003142516193
12.708,-0.015211004441301556
12.712,-0.01522453926696848
12.716000000000001,-0.015238675106208535
12.72,-0.015252330134590085
12.724,-0.015279351704838082
12.728,-0.015314619181309443
12.732000000000001,-0.01534067912984043
12.736,-0.015328394412405619
12.74,-0.015272620352819009
12.744,-0.015187901479550379
12.748000000000001,-0.015104817363200669
12.752,-0.01505916437218559
12.756,-0.015041422451506746
12.76,-0.01503865778907034
12.764000000000001,-0.015060606804761106
12.768,-0.015096403173176827
12.772,-0.015124795054371563
12.776,-0.01513679128529127
12.780000000000001,-0.015121525540533727
12.784,-0.015108687890611637
12.788,-0.015094119321598928
12.792,-0.015081522077106089
12.796000000000001,-0.015086618672206245
12.8,-0.0151054183767738
12.804,-0.015117318445521806
12.808,-0.01511029860698763
12.812,-0.015124266162427208
12.816,-0.01514227252907823
12.82,-0.015166962166662475
12.824,-0.01520530683262827
12.828,-0.015244204431081345
12.832,-0.01524148784973079
12.836,-0.015216581847260218
12.84,-0.015199104372553552
12.844,-0.0151806893166728
12.848,-0.01519073826361556
12.852,-0.015233866997623483
12.856,-0.015281058583385776
12.86,-0.015274952285482759
12.864,-0.015258652797379429
12.868,-0.015264686973653671
12.872,-0.01529793504451931
12.876,-0.015320509114326133
12.88,-0.01531469130293822
12.884,-0.015295771395656037
12.888,-0.015294954017196579
12.892,-0.015316061613884959
12.896,-0.015335390210396871
12.9,-0.015339549224322941
12.904,-0.015357988320746618
12.908,-0.015409531244778382
12.912,-0.01544318800487375
12.916,-0.015432441882186159
12.92,-0.015395731973139282
12.924,-0.015395467527167105
12.928,-0.015418041596973926
12.932,-0.01544811631617343
12.936,-0.015441985977727488
12.94,-0.01540289605493101
12.944,-0.01533611142668463
12.948,-0.015276611082944603
12.952,-0.015263869595194213
12.956,-0.015287309124546344
12.96,-0.015303584572106748
12.964,-0.015300098693382586
12.968,-0.015302166180074158
12.972,-0.015331904331672709
12.976,-0.015387894756145645
12.98,-0.015429893584636081
12.984,-0.015464031155589957
12.988,-0.015505645335393588
12.992,-0.015544999704162243
12.996,-0.015578319896656659
13.0,-0.015584161748587497
13.004,-0.015545648798821225
13.008000000000001,-0.015506727159825224
13.012,-0.015476940927140824
13.016,-0.015445087207764847
13.02,-0.015402511406244206
13.024000000000001,-0.015321855384729948
13.028,-0.015209706251983592
13.032,-0.015086137861347739
13.036,-0.014986730216351772
13.040000000000001,-0.014946149779893928
13.044,-0.014956535294437641
13.048,-0.014981874026680869
13.052,-0.015017622314010735
13.056000000000001,-0.015039282843186397
13.06,-0.01503404200482869
13.064,-0.015022262138795312
13.068,-0.015020963949477347
13.072000000000001,-0.01502957046384459
13.076,-0.015044836208602133
13.08,-0.015083685725969362
13.084,-0.015148931759468527
13.088000000000001,-0.015244709282482775
13.092,-0.015337818305232323
13.096,-0.015393880851334037
13.1,-0.015419075340319712
13.104000000000001,-0.015399506338378548
13.108,-0.015310868856613103
13.112,-0.015219154185353221
13.116,-0.0151486192324105
13.120000000000001,-0.015126886581606061
13.124,-0.015131670649648188
13.128,-0.015139772312614002
13.132,-0.015160903949845308
13.136000000000001,-0.015149460651412884
13.14,-0.015138065434066308
13.144,-0.015126574054548033
13.148,-0.015106836768806392
13.152000000000001,-0.015114241256027372
13.156,-0.015171409667103649
13.16,-0.015233001538078174
13.164,-0.015288150543548729
13.168000000000001,-0.015322191952330902
13.172,-0.015310436126840448
13.176,-0.01525509479702649
13.18,-0.01517653030274673
13.184000000000001,-0.015096114686661723
13.188,-0.015041903262365252
13.192,-0.015022791030739667
13.196,-0.01501353542171344
13.200000000000001,-0.01501358350279929
13.204,-0.01499120175733587
13.208,-0.014965454335862913
13.212,-0.014962857957226985
13.216000000000001,-0.014950693442506803
13.22,-0.014921796709910637
13.224,-0.01492249388565547
13.228,-0.014953265780599806
13.232000000000001,-0.015000120798761143
13.236,-0.015077795792952674
13.24,-0.015167202572091728
13.244,-0.015273918542136973
13.248000000000001,-0.015364719672765693
13.252,-0.015413017123502546
13.256,-0.015406886785056605
13.26,-0.015362531983359493
13.264000000000001,-0.015305579937169545
13.268,-0.01526016735158372
13.272,-0.015215187495770553
13.276,-0.015162899314908105
13.280000000000001,-0.015119770580900183
13.284,-0.015098999551812755
13.288,-0.015099239957242008
13.292,-0.01512491525708619
13.296000000000001,-0.015133016920052002
13.3,-0.015102413308908142
13.304,-0.015062530048195128
13.308,-0.015038826072870817
13.312000000000001,-0.015048322087326297
13.316,-0.015060582764218181
13.32,-0.015051832006593385
13.324,-0.015028224193440777
13.328,-0.014995384811804867
13.332,-0.01497228185005369
13.336,-0.01498105664822141
13.34,-0.01499298075751234
13.344,-0.01501947343581598
13.348,-0.0150733482925115
13.352,-0.015132488028107648
13.356,-0.015185136817113974
13.36,-0.015217976198749884
13.364,-0.01522124571258772
13.368,-0.015216798212146545
13.372,-0.015222688145163235
13.376,-0.01524605555288659
13.38,-0.015274519555710105
13.384,-0.015299257274380201
13.388,-0.015325365303997036
13.392,-0.015326350966256973
13.396,-0.015295747355113113
13.4,-0.015239035714352414
13.404,-0.015174871505284886
13.408,-0.01511034668807348
13.412,-0.015072458792423265
13.416,-0.015053082114825499
13.42,-0.01503810485658306
13.424,-0.015046110357377173
13.428,-0.015052192614737264
13.432,-0.015043345694940766
13.436,-0.015020074449389112
13.44,-0.01500384708291456
13.444,-0.015005626083091028
13.448,-0.015042143667794503
13.452,-0.015098230254439148
13.456,-0.015161817490476468
13.46,-0.015231511024416807
13.464,-0.015285073354054296
13.468,-0.015322167911787976
13.472,-0.01538361553950495
13.476,-0.015429148327805398
13.48,-0.015441841734469938
13.484,-0.01544025505863687
13.488,-0.015426023057225114
13.492,-0.015424965273336403
13.496,-0.015426095178853889
13.5,-0.015425518205823684
13.504,-0.015444702559078044
13.508000000000001,-0.01548706199571236
13.512,-0.015512544971213137
13.516,-0.015526704850996118
13.52,-0.015536465311423775
13.524000000000001,-0.015554904407847452
13.528,-0.015577574639825975
13.532,-0.015588152478713091
13.536,-0.015564857192618511
13.540000000000001,-0.015509347579004079
13.544,-0.01543715382859951
13.548,-0.01538787071560272
13.552,-0.01536914313266394
13.556000000000001,-0.015363709969962832
13.56,-0.015384480999050258
13.564,-0.015417392502314943
13.568,-0.01543349966607487
13.572000000000001,-0.01542390748944769
13.576,-0.015364839875480318
13.58,-0.015282837583562246
13.584,-0.015239372281953368
13.588000000000001,-0.015215115374141776
13.592,-0.015198815886038448
13.596,-0.015227424132119511
13.6,-0.015278029474977193
13.604000000000001,-0.015336231629399255
13.608,-0.015399265932949295
13.612,-0.015464007115047031
13.616,-0.0155090831330319
13.620000000000001,-0.01552004562060582
13.624,-0.015490091104120942
13.628,-0.015461338614782327
13.632,-0.015447371059342747
13.636000000000001,-0.015481436508667847
13.64,-0.015541561906523931
13.644,-0.015587912073283838
13.648,-0.015590508451919767
13.652000000000001,-0.015561227070636795
13.656,-0.015510477484521565
13.66,-0.015466170763910306
13.664,-0.01544628923491111
13.668000000000001,-0.015452155127384874
13.672,-0.015461002047181373
13.676,-0.0154225852595868
13.68,-0.015371210619355513
13.684000000000001,-0.015356882455772056
13.688,-0.015365561091768077
13.692,-0.015320989925184639
13.696,-0.015233987200338108
13.700000000000001,-0.015130083973815121
13.704,-0.015080079644530573
13.708,-0.01510582706600353
13.712,-0.015140613731616386
13.716000000000001,-0.01517465514039856
13.72,-0.015189680479726849
13.724,-0.015204465413625886
13.728,-0.015237497119605196
13.732000000000001,-0.01528266929976177
13.736,-0.01529793504451931
13.74,-0.01530570013988417
13.744,-0.015320004262924703
13.748000000000001,-0.015347819171089232
13.752,-0.015378158336260914
13.756,-0.015402271000814953
13.76,-0.015422224651442922
13.764000000000001,-0.015450664613723509
13.768,-0.015475907183795037
13.772,-0.0154977600373141
13.776,-0.015497543672427774
13.780000000000001,-0.01547756598125688
13.784,-0.015452203208470724
13.788,-0.01542152747569809
13.792,-0.015390899824011303
13.796000000000001,-0.015371907795100346
13.8,-0.015379480566121803
13.804,-0.015376259133369818
13.808,-0.015383182809732294
13.812000000000001,-0.015385514742396045
13.816,-0.015373951241248993
13.82,-0.015364335024078888
13.824,-0.015336640318628985
13.828,-0.015288078421919954
13.832,-0.015225092199455762
13.836,-0.015163259923051984
13.84,-0.01512090048641767
13.844,-0.01510272583596617
13.848,-0.015079791158015471
13.852,-0.015043513978741244
13.856,-0.014962064619310452
13.86,-0.014898212937300953
13.864,-0.014899511126618917
13.868,-0.014952111834539393
13.872,-0.015046062276291322
13.876,-0.015139748272071077
13.88,-0.015172755937507464
13.884,-0.015172611694249912
13.888,-0.015190113209499503
13.892,-0.015250286688441438
13.896,-0.01531423453262264
13.9,-0.015289496813952544
13.904,-0.015182588519563896
13.908,-0.01509988905190099
13.912,-0.015071713535592581
13.916,-0.015081305712219762
13.92,-0.015124121919169656
13.924,-0.015149051962183153
13.928,-0.015172371288820659
13.932,-0.01517927092464021
13.936,-0.015173813721396175
13.94,-0.015179847897670415
13.944,-0.015208792711352432
13.948,-0.01523591044377213
13.952,-0.015243002403935082
13.956,-0.01519749365617756
13.96,-0.015107221417493195
13.964,-0.015030532085561602
13.968,-0.014994735717145885
13.972,-0.015005145272232524
13.976,-0.015011179448506764
13.98,-0.015009785097017099
13.984,-0.015000337163647471
13.988,-0.01499658683895113
13.992,-0.014969949917389938
13.996,-0.014935956589693615
14.0,-0.014895616558665024
14.004,-0.0148662870962962
14.008000000000001,-0.014866960231498109
14.012,-0.014894053923374883
14.016,-0.0149186233582445
14.02,-0.014933768900287418
14.024000000000001,-0.014939923279276285
14.028,-0.014929802210704748
14.032,-0.014933768900287418
14.036,-0.01494050025230649
14.040000000000001,-0.014953361942771507
14.044,-0.01497466186380329
14.048,-0.01502618074729213
14.052,-0.015073708900655378
14.056000000000001,-0.015129867608928793
14.06,-0.015163981139339743
14.064,-0.01517465514039856
14.068,-0.015149268327069481
14.072000000000001,-0.015098662984211801
14.076,-0.015065727440404186
14.08,-0.015037503843009928
14.084,-0.01500983317810295
14.088000000000001,-0.014984326162059245
14.092,-0.014939754995475807
14.096,-0.01486015675785026
14.1,-0.014791713332142034
14.104000000000001,-0.014747166206101522
14.108,-0.014754354328436175
14.112,-0.014814359523577632
14.116,-0.014868066096472671
14.120000000000001,-0.014899943856391571
14.124,-0.01492660481849569
14.128,-0.014950188591105371
14.132,-0.014978844918272286
14.136000000000001,-0.014992259541224582
14.14,-0.01498608112169279
14.144,-0.014982186553738897
14.148,-0.014999375541930461
14.152000000000001,-0.015026421152721382
14.156,-0.015062001156250771
14.16,-0.01510181229533501
14.164,-0.015138377961124336
14.168000000000001,-0.015174943626913661
14.172,-0.015191002709587738
14.176,-0.015173260788908894
14.18,-0.01511775117529446
14.184000000000001,-0.01504728834398051
14.188,-0.014995480973976568
14.192,-0.014974806107060841
14.196,-0.014966055349436045
14.200000000000001,-0.01497014224173334
14.204,-0.014979566134560043
14.208,-0.01499028821670471
14.212,-0.015012189151309625
14.216000000000001,-0.015036446059121217
14.22,-0.015051928168765086
14.224,-0.015089455456271427
14.228,-0.01513825775840971
14.232000000000001,-0.015192036452933525
14.236,-0.01525382064825145
14.24,-0.015266730419802319
14.244,-0.015230405159442245
14.248000000000001,-0.015172563613164061
14.252,-0.015104024025284135
14.256,-0.015047312384523436
14.26,-0.014981393215822364
14.264000000000001,-0.014929657967447198
14.268,-0.014923816115516358
14.272,-0.014964180187087875
14.276,-0.015008534988784985
14.280000000000001,-0.015034763221116448
14.284,-0.015037095153780199
14.288,-0.01502454599037321
14.292,-0.015001755555680061
14.296000000000001,-0.01499074498702029
14.3,-0.014999832312246041
14.304,-0.015018992624957475
14.308,-0.015016348165235695
14.312000000000001,-0.015010289948418529
14.316,-0.015003799001828709
14.32,-0.01501819928704094
14.324,-0.015069333521842981
14.328000000000001,-0.015094191443227703
14.332,-0.015086065739718964
14.336,-0.015061616507563966
14.34,-0.015006948312951919
14.344,-0.014941702279452754
14.348,-0.014886433071267574
14.352,-0.014832341849685729
14.356,-0.014779140128192121
14.36,-0.014728630947506144
14.364,-0.014670957685028435
14.368,-0.014634608384125437
14.372,-0.014649946250511754
14.376,-0.014694661660352746
14.38,-0.01476519661329547
14.384,-0.014861767474226252
14.388,-0.014948145144956725
14.392,-0.0150121651107667
14.396,-0.015055317885317549
14.4,-0.015075511941374773
14.404,-0.015083685725969362
14.408,-0.015070487467903394
14.412,-0.015034883423831075
14.416,-0.015017934841068763
14.42,-0.015007885894126003
14.424,-0.014976729350494862
14.428,-0.014924152683117312
14.432,-0.014857993108986984
14.436,-0.014815970239953624
14.44,-0.014789838169793864
14.444,-0.014757647882816936
14.448,-0.014742382138059394
14.452,-0.014752839774231884
14.456,-0.014769163302878138
14.46,-0.014791521007798632
14.464,-0.014810344752909113
14.468,-0.014830538808966334
14.472,-0.014855516933065683
14.476,-0.014860805852509242
14.48,-0.014883139516886813
14.484,-0.014912973830657063
14.488,-0.014927638561841474
14.492,-0.014912925749571213
14.496,-0.0148865532739822
14.5,-0.014843063931830396
14.504,-0.014800391968138054
14.508000000000001,-0.014758248896390068
14.512,-0.014715985621927455
14.516,-0.014676294685557846
14.52,-0.014632300492004612
14.524000000000001,-0.014610543800657249
14.528,-0.014643383182293157
14.532,-0.014687954348876597
14.536,-0.014730890758541119
14.540000000000001,-0.014763177207689746
14.544,-0.014783876115148399
14.548,-0.014831740836112597
14.552,-0.014898862031959935
14.556000000000001,-0.014970022039018713
14.56,-0.01502759913932472
14.564,-0.015046903695293707
14.568,-0.015026108625663353
14.572000000000001,-0.015000337163647471
14.576,-0.01496735353875401
14.58,-0.014951222334451158
14.584,-0.014936557603266747
14.588000000000001,-0.014904848127148325
14.592,-0.014854915919492551
14.596,-0.014781327817598321
14.6,-0.014707739715704089
14.604000000000001,-0.014685333929697744
14.608,-0.014691464268143687
14.612,-0.014672953050091234
14.616,-0.01463266110014849
14.620000000000001,-0.014603572043208921
14.624,-0.01460657711107458
14.628,-0.014649176953138146
14.632,-0.014724015163264492
14.636000000000001,-0.014790559386081622
14.64,-0.014849001945932937
14.644,-0.014885495490093489
14.648,-0.014901891140368518
14.652000000000001,-0.014913574844230195
14.656,-0.014932086062282648
14.66,-0.014947976861156247
14.664,-0.014977474607325545
14.668000000000001,-0.015010145705160979
14.672,-0.015049283709043307
14.676,-0.015069501805643457
14.68,-0.015077651549695122
14.684000000000001,-0.015078997820098937
14.688,-0.01504135032987797
14.692,-0.015004592339745243
14.696,-0.014979974823789773
14.700000000000001,-0.014938048116928114
14.704,-0.014878595854273938
14.708,-0.014828110714130883
14.712,-0.014780750844568114
14.716000000000001,-0.014745771854611857
14.72,-0.01474291103000375
14.724,-0.014775293641324079
14.728,-0.014826620200469516
14.732000000000001,-0.014869845096649141
14.736,-0.014891481585281878
14.74,-0.014903189329686482
14.744,-0.01490386246488839
14.748000000000001,-0.014884966598149132
14.752,-0.01487518209717855
14.756,-0.014869316204704787
14.76,-0.014865373555665041
14.764000000000001,-0.014861647271511624
14.768,-0.014846165161867755
14.772,-0.014834241052576825
14.776,-0.014850348216336752
14.780000000000001,-0.014874653205234194
14.784,-0.014897299396669792
14.788,-0.014904631762261998
14.792,-0.014906579046238945
14.796000000000001,-0.014907949357185684
14.8,-0.014888115909272342
14.804,-0.014856767041297797
14.808,-0.014829913754850278
14.812000000000001,-0.014809046563591149
14.816,-0.014791569088884482
14.82,-0.01478954968327876
14.824,-0.01480649826604107
14.828000000000001,-0.014837654809672212
14.832,-0.014868619028959952
14.836,-0.014886769638868527
14.84,-0.014903477816201586
14.844000000000001,-0.01490838208695834
14.848,-0.014908718654559292
14.852,-0.014924537331804115
14.856,-0.01493533153557756
14.86,-0.01494045217122064
14.864,-0.014954780334804097
14.868,-0.014979638256188818
14.872,-0.014995793501034596
14.876,-0.015013463300084665
14.88,-0.015025050841774641
14.884,-0.01502947430167289
14.888,-0.01503276785605365
14.892,-0.01499658683895113
14.896,-0.014934249711145922
14.9,-0.014893645234145153
14.904,-0.014844987175264418
14.908,-0.014781111452711992
14.912,-0.014718606041106308
14.916,-0.014667255441417944
14.92,-0.014645330466270104
14.924,-0.014649176953138146
14.928,-0.014675958117956892
14.932,-0.014734112191293103
14.936,-0.014784453088178605
14.94,-0.014833087106516412
14.944,-0.014875230178264401
14.948,-0.014897876369699999
14.952,-0.014926316331980586
14.956,-0.014957040145839071
14.96,-0.014964685038489306
14.964,-0.014936028711322392
14.968,-0.014886024382037844
14.972,-0.014856262189896366
14.976,-0.014847319107928168
14.98,-0.01486924408307601
14.984,-0.014916772236439255
14.988,-0.01496552645749169
14.992,-0.014988485175985316
14.996,-0.014963867660029847
15.0,-0.014901506491681713
15.004,-0.014797531143529948
15.008000000000001,-0.01468622342978598
15.012,-0.014600999705115919
15.016,-0.014542869672322632
15.02,-0.014531185968460954
15.024000000000001,-0.014556909349390986
15.028,-0.014597585948020532
15.032,-0.01465412930498075
15.036,-0.014724015163264492
15.040000000000001,-0.014786664818127728
15.044,-0.014852535905742951
15.048,-0.014920402358420971
15.052,-0.01497146447159423
15.056000000000001,-0.015008559029327911
15.06,-0.015015795232748414
15.064,-0.014984326162059245
15.068,-0.014934033346259595
15.072000000000001,-0.014866888109869332
15.076,-0.014809575455535505
15.08,-0.014779500736336
15.084,-0.01476300892388927
15.088000000000001,-0.014760797193940146
15.092,-0.014773129992460806
15.096,-0.014801161265511663
15.1,-0.014835827728409893
15.104000000000001,-0.014873980070032287
15.108,-0.014887731260585537
15.112,-0.014870085502078394
15.116,-0.014833087106516412
15.120000000000001,-0.014817148226556963
15.124,-0.014833784282261245
15.128,-0.014859074933418622
15.132,-0.014873931988946437
15.136000000000001,-0.014896818585811288
15.14,-0.014914344141603805
15.144,-0.014927085629354193
15.148,-0.014937903873670562
15.152000000000001,-0.014929465643103795
15.156,-0.014909608154647527
15.16,-0.01488472619271988
15.164,-0.014877994840700806
15.168000000000001,-0.014898789910331159
15.172,-0.014923215101943227
15.176,-0.01494639018532318
15.18,-0.014966608281923326
15.184000000000001,-0.01501033802950438
15.188,-0.015067626643295287
15.192,-0.015056039101605306
15.196,-0.015046663289864454
15.200000000000001,-0.015057457493637896
15.204,-0.01506291469688193
15.208,-0.015043345694940766
15.212,-0.015016973219351753
15.216000000000001,-0.015013222894655412
15.22,-0.01505043765510372
15.224,-0.01512404979754088
15.228,-0.015189993006784877
15.232000000000001,-0.015222447739733982
15.236,-0.01520814361669345
15.24,-0.015167659342407307
15.244,-0.015127223149207015
15.248000000000001,-0.0151282568925528
15.252,-0.015119169567327052
15.256,-0.01508796494261006
15.26,-0.015029666626016291
15.264000000000001,-0.01496086259216419
15.268,-0.0149344179949464
15.272,-0.014934682440918577
15.276,-0.014929225237674542
15.280000000000001,-0.014885880138780292
15.284,-0.014826596159926592
15.288,-0.01477945265525015
15.292,-0.014755171706895635
15.296000000000001,-0.014738679894448903
15.3,-0.014755796761011691
15.304,-0.014795631940638852
15.308,-0.014854988041121326
15.312000000000001,-0.014916603952638779
15.316,-0.014965310092605362
15.32,-0.014990408419419338
15.324,-0.014996875325466234
15.328000000000001,-0.015011588137736493
15.332,-0.015028488639412954
15.336,-0.015050966547048076
15.34,-0.015060654885846956
15.344000000000001,-0.015058731642412936
15.348,-0.01505007704695984
15.352,-0.01503394584265699
15.356,-0.015005481839833476
15.36,-0.014980191188676101
15.364,-0.014979397850759567
15.368,-0.014978436229042555
15.372,-0.014953986996887563
15.376,-0.014891505625824804
15.38,-0.014826427876126114
15.384,-0.014790054534680191
15.388,-0.01476935562722154
15.392,-0.014770076843509297
15.396,-0.014782217317686556
15.4,-0.014791448886169857
15.404,-0.014814912456064913
15.408,-0.014827798187072855
15.412,-0.014823807456947261
15.416,-0.01480625786061182
15.42,-0.014796329116383684
15.424,-0.014803421076546638
15.428,-0.014829192538562519
15.432,-0.014854026419404316
15.436,-0.014869364285790637
15.44,-0.014880855665308912
15.444,-0.014894703018033865
15.448,-0.014893837558488554
15.452,-0.01486960469121989
15.456,-0.01484929043244804
15.46,-0.014854795716777926
15.464,-0.014865613961094294
15.468,-0.014868066096472671
15.472,-0.014870878839994928
15.476,-0.014870614394022751
15.48,-0.014871095204881255
15.484,-0.01487700917844087
15.488,-0.014858810487446444
15.492,-0.014818109848273973
15.496,-0.014801810360170645
15.5,-0.014781063371626142
15.504,-0.014782433682572883
15.508000000000001,-0.01479584830552518
15.512,-0.014805103914551405
15.516,-0.014821162997225482
15.52,-0.014831788917198448
15.524000000000001,-0.014844121715719109
15.528,-0.014863113744630067
15.532,-0.014861719393140401
15.536,-0.014839554012563308
15.540000000000001,-0.014826115349068086
15.544,-0.014806546347126921
15.548,-0.014773995452006115
15.552,-0.014745146800495799
15.556000000000001,-0.014719711906080872
15.56,-0.014720889892684209
15.564,-0.01473875201607768
15.568,-0.0147725530194306
15.572000000000001,-0.014800103481622952
15.576,-0.014803228752203235
15.58,-0.014778178506475111
15.584,-0.014745723773526006
15.588000000000001,-0.014704325958608702
15.592,-0.014678193888448942
15.596,-0.014661990562517312
15.6,-0.014661365508401254
15.604000000000001,-0.01466545240069855
15.608,-0.014683458767349574
15.612,-0.014696128133471188
15.616,-0.014720841811598358
15.620000000000001,-0.01477661587118497
15.624,-0.014834914187778733
15.628,-0.014880398894993332
15.632,-0.014893044220572022
15.636000000000001,-0.014880831624765988
15.64,-0.014878499692102237
15.644,-0.014878956462417816
15.648,-0.014871696218454387
15.652000000000001,-0.014870590353479825
15.656,-0.014846790215983813
15.66,-0.014800848738453635
15.664,-0.014746613273614241
15.668000000000001,-0.014693651957549885
15.672,-0.014674515685381376
15.676,-0.01468627151087183
15.68,-0.014699926539253378
15.684000000000001,-0.014701681498886924
15.688,-0.014677448631618259
15.692,-0.014631459073002227
15.696,-0.01459607139381624
15.700000000000001,-0.014546139186160469
15.704,-0.01448334528803968
15.708,-0.014413122862154982
15.712,-0.014323692042473003
15.716000000000001,-0.014256017914138384
15.72,-0.014236737398712323
15.724,-0.014283472214159038
15.728,-0.014383552994356908
15.732000000000001,-0.014512554547693875
15.736,-0.014642830249805876
15.74,-0.014776086979240613
15.744,-0.014883716489917018
15.748000000000001,-0.014958410456785812
15.752,-0.014978580472300107
15.756,-0.014941966725424931
15.76,-0.014878619894816864
15.764000000000001,-0.014813950834347903
15.768,-0.014756277571870197
15.772,-0.014729352163793901
15.776,-0.01470545586412619
15.780000000000001,-0.014674275279952123
15.784,-0.014664058049208884
15.788,-0.014682304821289162
15.792,-0.014682809672690592
15.796000000000001,-0.014670693239056258
15.8,-0.014663889765408408
15.804,-0.014653432129235918
15.808,-0.014636651830274084
15.812000000000001,-0.01462612207247282
15.816,-0.014626290356273296
15.82,-0.014642277317318595
15.824,-0.014669226765937815
15.828000000000001,-0.014711658324200908
15.832,-0.014774043533091965
15.836,-0.014822701591972699
15.84,-0.014842294634456788
15.844000000000001,-0.01483700571501323
15.848,-0.014796064670411507
15.852,-0.014740603137882925
15.856,-0.01470129685020012
15.860000000000001,-0.014653672534665171
15.864,-0.01460987066545534
15.868,-0.014570636499401312
15.872,-0.014539960766628675
15.876,-0.014528253022224073
15.88,-0.014516352953476067
15.884,-0.014528325143852848
15.888,-0.014553471551752673
15.892,-0.014584003041267758
15.896,-0.01462028022054198
15.9,-0.014650354939741485
15.904,-0.014679564199395681
15.908,-0.014724255568693745
15.912,-0.01476940370830739
15.916,-0.014819792686278742
15.92,-0.014888957328274726
15.924,-0.014926075926551333
15.928,-0.014909367749218274
15.932,-0.014832582255114982
15.936,-0.014718389676219981
15.94,-0.014627011572561053
15.944,-0.0145879456903075
15.948,-0.014548398997195443
15.952,-0.014480748909403752
15.956,-0.014414132564957844
15.96,-0.014387231197424473
15.964,-0.014400213090604116
15.968,-0.014429951242202666
15.972,-0.014434518945358467
15.976,-0.014443293743526188
15.98,-0.014449255798171653
15.984,-0.014415406713732882
15.988,-0.014377566899168519
15.992,-0.0143416743685811
15.996,-0.014350497247834671
16.0,-0.014426273039135101
16.004,-0.014506231884904531
16.008,-0.014562414633720872
16.012,-0.014596864731732774
16.016000000000002,-0.01458821013627968
16.02,-0.014587344676734369
16.024,-0.014596456042503043
16.028,-0.014609245611339285
16.032,-0.014634920911183465
16.036,-0.014668481509107132
16.04,-0.014699205322965621
16.044,-0.014719904230424272
16.048000000000002,-0.014727741447417909
16.052,-0.014722140000916322
16.056,-0.014730145501710435
16.06,-0.014740819502769252
16.064,-0.014749690463108674
16.068,-0.014743968813892462
16.072,-0.014712018932344787
16.076,-0.014690622849141303
16.080000000000002,-0.01468093451034242
16.084,-0.014669947982225574
16.088,-0.014647638358390929
16.092,-0.014625833585957716
16.096,-0.014604990435241513
16.1,-0.014604677908183485
16.104,-0.014623237207321787
16.108,-0.014635065154441016
16.112000000000002,-0.01462758854559126
16.116,-0.014588138014650903
16.12,-0.014538301969166832
16.124,-0.014520007116000707
16.128,-0.014528397265481623
16.132,-0.014555659241158873
16.136,-0.014574410864640577
16.14,-0.01459104692034486
16.144000000000002,-0.014606889638132609
16.148,-0.01464271004709125
16.152,-0.01466367340052208
16.156,-0.014680117131882962
16.16,-0.01468485311883924
16.164,-0.014679540158852755
16.168,-0.014683218361920321
16.172,-0.014677112064017304
16.176000000000002,-0.014676078320671518
16.18,-0.01467703994238853
16.184,-0.014667471806304271
16.188,-0.014677328428903631
16.192,-0.014716971284187391
16.196,-0.014749185611707244
16.2,-0.014758176774761293
