0.0,0.018599807453132562
0.004,0.018610337210933827
0.008,0.018634521997116647
0.012,0.018641734159994226
0.016,0.0186556055532621
0.02,0.01868560815083283
0.024,0.018718952383870172
0.028,0.018754219860341533
0.032,0.018784054174111782
0.036000000000000004,0.018806676325004455
0.04,0.018818047501808106
0.044,0.018843602598937664
0.048,0.018868869209552115
0.052000000000000005,0.018876538142745272
0.056,0.01886487847942652
0.06,0.01889771786106243
0.064,0.018935148986397064
0.068,0.018952217771874003
0.07200000000000001,0.01896176186741533
0.076,0.01897409466593599
0.08,0.01898080197741214
0.084,0.018997894803432003
0.088,0.019017223399943918
0.092,0.01903381137456235
0.096,0.01905924626897728
0.1,0.019079584568292052
0.10400000000000001,0.019104033800447045
0.108,0.01911994863986357
0.112,0.01913932531746133
0.116,0.019162788887356386
0.12,0.01967160697836959
0.124,0.019698652589160513
0.128,0.019716995523412488
0.132,0.019729328321933148
0.136,0.01974353628280198
0.14,0.019755796959693865
0.14400000000000002,0.019773971610145363
0.148,0.019801882680481595
0.152,0.019809792019104006
0.156,0.019823591290743108
0.16,0.019844963333403666
0.164,0.019861407064764545
0.168,0.019882490620910003
0.17200000000000001,0.019894967662688213
0.176,0.019909079461385343
0.18,0.019929562003957665
0.184,0.019948794438297876
0.188,0.019960285817816153
0.192,0.01997615257614683
0.196,0.01998918255041232
0.2,0.020001250902960805
0.20400000000000001,0.02001341541768099
0.20800000000000002,0.020032719973649974
0.212,0.020054933435312918
0.216,0.02006846826097984
0.22,0.020069429882696853
0.224,0.020076497802316882
0.228,0.02008979222255455
0.232,0.020082459856962345
0.23600000000000002,0.020099408439724655
0.24,0.020128858104808103
0.244,0.020150927323213497
0.248,0.020173260987591066
0.252,0.02016032717549727
0.256,0.02016734701403145
0.26,0.02019299827333271
0.264,0.020222111370815202
0.268,0.02024177653492807
0.272,0.020265648794052855
0.276,0.020275649659909765
0.28,0.020256753793170507
0.28400000000000003,0.020285746687938377
0.28800000000000003,0.020308537122631524
0.292,0.02030983531194949
0.296,0.020311590271583035
0.3,0.02032060547518001
0.304,0.020343107423358053
0.308,0.020355079613734835
0.312,0.020366811398682363
0.316,0.02038484180587631
0.32,0.020397102482768194
0.324,0.02040373767261557
0.328,0.020422393133925573
0.332,0.020441048595235576
0.336,0.02045311694778406
0.34,0.020457251921167204
0.34400000000000003,0.020458165461798364
0.34800000000000003,0.020443909419843684
0.352,0.0204500157177467
0.356,0.020468575016885003
0.36,0.02048725451873793
0.364,0.020501943290465268
0.368,0.020524036549413587
0.372,0.020565698810303065
0.376,0.020565819013017694
0.38,0.020569112567398455
0.384,0.02061630415316075
0.388,0.020639839844684583
0.392,0.020654456494783143
0.396,0.020676020861787103
0.4,0.02070669659455974
0.404,0.020720928595971494
0.40800000000000003,0.020745594193012817
0.41200000000000003,0.020762542775775127
0.41600000000000004,0.020781991575001667
0.42,0.020794733062752056
0.424,0.020805815753040604
0.428,0.020823028781775093
0.432,0.020846372148955523
0.436,0.020853968960519907
0.44,0.02086942702962085
0.444,0.020890967356081886
0.448,0.020905800371066773
0.452,0.0209196236832488
0.456,0.020935298117236073
0.46,0.02096001179536324
0.464,0.020979965445991212
0.468,0.020996240893551614
0.47200000000000003,0.021008862178587377
0.47600000000000003,0.02100874197587275
0.48,0.021449308965521136
0.484,0.021450679276467873
0.488,0.021455535466138778
0.492,0.02142288840884627
0.496,0.02140908913720717
0.5,0.021403968501564088
0.504,0.021389063364950424
0.508,0.02139995373089557
0.512,0.02142288840884627
0.516,0.021435581815510807
0.52,0.02143873112663402
0.524,0.02143654343722782
0.528,0.02142659065245676
0.532,0.021434019180220667
0.536,0.021448756033033853
0.54,0.021464069858877246
0.544,0.021468325034975016
0.548,0.021472700413787415
0.552,0.0214737341571332
0.556,0.02147433517070633
0.56,0.02147450345450681
0.5640000000000001,0.021460463777438456
0.5680000000000001,0.021473613954418574
0.5720000000000001,0.0214852495771944
0.5760000000000001,0.021495707213366893
0.58,0.021499914308378814
0.584,0.021499481578606157
0.588,0.021505780200852576
0.592,0.02151109316083906
0.596,0.02150364059253223
0.6,0.02150491474130727
0.604,0.021511886498755593
0.608,0.021487220901714274
0.612,0.02148794211800203
0.616,0.021502534727557667
0.62,0.021509193957947963
0.624,0.02152890720314668
0.628,0.021548476205087846
0.632,0.02155402957050358
0.636,0.02156561711219356
0.64,0.02158434469513234
0.644,0.021596533250395445
0.648,0.02161129414375156
0.652,0.021617761049798453
0.656,0.02163269022695504
0.66,0.02163665691653771
0.664,0.02163519044341927
0.668,0.021636632875994787
0.672,0.021634397105502735
0.676,0.021633483564871575
0.68,0.02163382013247253
0.684,0.021634685592017838
0.6880000000000001,0.021628651415743598
0.6920000000000001,0.02162143925286602
0.6960000000000001,0.021615068508990823
0.7000000000000001,0.02162528573973406
0.704,0.021649734971889052
0.708,0.02167365531209969
0.712,0.021685603461933545
0.716,0.021694762908788072
0.72,0.021701301936463743
0.724,0.02173192958815053
0.728,0.021756330739219672
0.732,0.02174613754901936
0.736,0.02176589887530393
0.74,0.021793425296953356
0.744,0.021797993000109157
0.748,0.021819869894171146
0.752,0.02184602600487383
0.756,0.021851747654090044
0.76,0.02185415170838257
0.764,0.021869826142369844
0.768,0.021886125630473173
0.772,0.021891150103944552
0.776,0.021899972983198124
0.78,0.021919037133737856
0.784,0.021931057405200488
0.788,0.021945313447155168
0.792,0.021963728503035924
0.796,0.021981037693942114
0.8,0.021994476357437336
0.804,0.022019911251852264
0.808,0.02204404795694923
0.812,0.022056645201442068
0.8160000000000001,0.02207354570311853
0.8200000000000001,0.022080012609165423
0.8240000000000001,0.022099653732735362
0.8280000000000001,0.022111577842026293
0.8320000000000001,0.022119150613047752
0.836,0.02212636277592533
0.84,0.022132637357628826
0.844,0.02213540202006523
0.848,0.02214088326385219
0.852,0.022159226198104166
0.856,0.022151917873054885
0.86,0.022143768129003222
0.864,0.022161630252396692
0.868,0.022171607077710678
0.872,0.022185214025006377
0.876,0.022198051674928467
0.88,0.02218720939006917
0.884,0.022198099756014316
0.888,0.02221401459543084
0.892,0.022207547689383947
0.896,0.022188555660472987
0.9,0.02215576435992293
0.904,0.02213708485807
0.908,0.02212229992417096
0.912,0.02211292411243011
0.916,0.022101985665399115
0.92,0.022107178422670973
0.924,0.02211419826120515
0.928,0.022123141343173346
0.932,0.022111722085283846
0.936,0.02210032686793727
0.9400000000000001,0.022100735557167
0.9440000000000001,0.02211318855840229
0.9480000000000001,0.022112443301571603
0.9520000000000001,0.022111577842026293
0.9560000000000001,0.022118982329247274
0.96,0.022128165816644726
0.964,0.022145643291351394
0.968,0.022155932643723404
0.972,0.022181872389539763
0.976,0.022197138134297308
0.98,0.022203220391657397
0.984,0.022221274839394272
0.988,0.022247695396069134
0.992,0.022256037464464203
0.996,0.02226466801937437
1.0,0.022275053533918083
1.004,0.022280270331732868
1.008,0.02230303672588309
1.012,0.022314840632459396
1.016,0.022325562714604064
1.02,0.02233020253938864
1.024,0.02233928986461439
1.028,0.022346550108577817
1.032,0.022354675812086562
1.036,0.022371191665076215
1.04,0.02238847681543948
1.044,0.022395496653973657
1.048,0.022404968627886213
1.052,0.022420330534815455
1.056,0.022436557901290007
1.06,0.022461632187561056
1.064,0.022478604810866294
1.068,0.022492860852820973
1.072,0.022509448827439407
1.076,0.022513800165708878
1.08,0.02266982328929384
1.084,0.022678477884746934
1.088,0.022677107573800197
1.092,0.022684223574506075
1.096,0.02268571408816744
1.1,0.022691027048153924
1.104,0.02267799707388843
1.108,0.022638282096975895
1.112,0.022628473555462388
1.116,0.022616693689429007
1.12,0.022619698757294665
1.124,0.02264857144934791
1.1280000000000001,0.022654076733677794
1.1320000000000001,0.022651937125357444
1.1360000000000001,0.022665736396996546
1.1400000000000001,0.02268612277739717
1.1440000000000001,0.022695955359453603
1.1480000000000001,0.02269032987240909
1.1520000000000001,0.022683382155503688
1.156,0.022693358980817674
1.16,0.022705956225310513
1.164,0.022717038915599057
1.168,0.022731559403525916
1.172,0.022743195026301743
1.176,0.022732905673929733
1.18,0.022727905241001278
1.184,0.02273083818723816
1.188,0.02275636924382479
1.192,0.022773942880703155
1.196,0.022785217895335105
1.2,0.0227941609773033
1.204,0.0228029117349281
1.208,0.022800171113034617
1.212,0.022821158507008374
1.216,0.022830029467347794
1.22,0.022837289711311225
1.224,0.022859839740575122
1.228,0.02288162047246541
1.232,0.022898689257942348
1.236,0.022906887083079863
1.24,0.022911190340263482
1.244,0.022924124152357277
1.248,0.022932947031610848
1.252,0.022939101410599714
1.256,0.022955112412187943
1.26,0.022964993075330228
1.264,0.02297650849539143
1.268,0.022984273590756287
1.272,0.02300213571414976
1.276,0.023012761634122726
1.28,0.023019348742884246
1.284,0.023027185959877884
1.288,0.023031369014346877
1.292,0.023014396391041643
1.296,0.023006583214590932
1.3,0.02302706575716326
1.304,0.023039422596226843
1.308,0.023053125705694243
1.312,0.023067525990906473
1.316,0.02307358420772364
1.32,0.024135575191447163
1.324,0.024125093514731744
1.328,0.02414461443558706
1.332,0.02415588945021901
1.336,0.024179160695770665
1.34,0.02418613245321899
1.344,0.024205773576788932
1.348,0.02421815445639544
1.352,0.024215534037216588
1.356,0.024217433240107684
1.36,0.02423243453889305
1.364,0.024249912013599714
1.368,0.024274289124125933
1.372,0.02427044263725789
1.3760000000000001,0.024250561108258697
1.3800000000000001,0.02425409506806871
1.3840000000000001,0.024266644231475697
1.3880000000000001,0.02428222250329127
1.3920000000000001,0.024297055518276156
1.3960000000000001,0.024315109966013028
1.4000000000000001,0.024335063616641
1.4040000000000001,0.024339679400882653
1.408,0.024348045509820643
1.412,0.024355089388897744
1.416,0.024367614511761806
1.42,0.024386606540672765
1.424,0.024401223190771325
1.428,0.02441586388141281
1.432,0.02442576858509802
1.436,0.024442380600259377
1.44,0.024465723967439807
1.444,0.024480100212109113
1.448,0.024484932361237093
1.452,0.024495365956866657
1.456,0.02450712178235711
1.46,0.024503082971145666
1.464,0.024511449080083656
1.468,0.024524551175977925
1.472,0.024539239947705262
1.476,0.024537821555672672
1.48,0.024533470217403198
1.484,0.02454443270497712
1.488,0.024557606922500162
1.492,0.024558760868560577
1.496,0.024567583747814148
1.5,0.024572560140199675
1.504,0.024584051519717952
1.508,0.02459898069687454
1.512,0.024597634426470727
1.516,0.02459001357436342
1.52,0.02459309076385785
1.524,0.024602875264828433
1.528,0.02462030465844925
1.532,0.024629752591818876
1.536,0.024636820511438905
1.54,0.024651028472307736
1.544,0.02466405844657323
1.548,0.02467045323099135
1.552,0.024673265974513605
1.556,0.024693580233285453
1.56,0.024709711437588305
1.564,0.02471658703286493
1.568,0.024721082614391956
1.572,0.024743945170713884
1.576,0.024742671021938844
1.58,0.02474279122465347
1.584,0.024754426847429296
1.588,0.024767985713639147
1.592,0.024772240889736917
1.596,0.024795488094745646
1.6,0.024799166297813213
1.604,0.024790367459102566
1.608,0.024792867675566793
1.612,0.02480313298739588
1.616,0.024824456948970588
1.62,0.024832101841620824
1.624,0.024837414801607307
1.6280000000000001,0.024846526167375982
1.6320000000000001,0.024850757302930827
1.6360000000000001,0.02485835411449521
1.6400000000000001,0.02486393152045387
1.6440000000000001,0.024883716887281363
1.6480000000000001,0.024893357144994393
1.6520000000000001,0.024892395523277384
1.6560000000000001,0.024898477780637474
1.6600000000000001,0.024900352942985645
1.6640000000000001,0.024905641862429204
1.668,0.02492018639089899
1.672,0.024930115135127124
1.676,0.024930475743271004
1.68,0.024937207095290077
1.684,0.024950549596613598
1.688,0.024952857488734423
1.692,0.024958507016321862
1.696,0.024970935977014223
1.7,0.02496997435529721
1.704,0.024971777396016605
1.708,0.024988677897693067
1.712,0.024991682965558724
1.716,0.0249915627628441
1.72,0.024989158708551572
1.724,0.02498754799217558
1.728,0.024997068047173984
1.732,0.02500632365620021
1.736,0.025010242264697027
1.74,0.025017526549203382
1.744,0.025014064711022143
1.748,0.02502966702338064
1.752,0.025060967810269334
1.756,0.025057097282858366
1.76,0.025060895688640557
1.764,0.02507736346054436
1.768,0.02509200415118585
1.772,0.025101836733242282
1.776,0.025114938829136547
1.78,0.025126526370826525
1.784,0.025136262790711256
1.788,0.025137993709801878
1.792,0.02514681658905545
1.796,0.025158764738889304
1.8,0.025161697685126185
1.804,0.025166217307196134
1.808,0.025166073063938584
1.812,0.025168813685832063
1.816,0.025184079430589607
1.82,0.02519218109355542
1.824,0.025179223240918702
1.828,0.02517451129450535
1.832,0.025192277255727123
1.836,0.025193359080158757
1.84,0.025186820052483086
1.844,0.025200691445750965
1.848,0.025207062189626157
1.852,0.025221246109952064
1.856,0.025228602516087193
1.86,0.025232665367841564
1.864,0.025250960221007687
1.868,0.025261538059894804
1.872,0.025256465505337573
1.8760000000000001,0.02526521626296237
1.8800000000000001,0.02527125043923661
1.8840000000000001,0.025290410751948045
1.8880000000000001,0.025298993225772365
1.8920000000000001,0.025291228130407503
1.8960000000000001,0.025303007996440884
1.9000000000000001,0.025328034201626083
1.9040000000000001,0.025341641148921783
1.9080000000000001,0.025334669391473455
1.9120000000000001,0.025328466931398737
1.9160000000000001,0.02533738597282401
1.92,0.025362195813122882
1.924,0.025380394504117307
1.928,0.025358349326254838
1.932,0.025365393205331942
1.936,0.02538611615333352
1.94,0.025411310642319204
1.944,0.02543006226580091
1.948,0.02542837942779614
1.952,0.025438740901796927
1.956,0.025463262255580696
1.96,0.025469464715655414
1.964,0.025472301499720594
1.968,0.0254706907833446
1.972,0.025480258919428858
1.976,0.025493312934237275
1.98,0.025502231975662547
1.984,0.025507785341078285
1.988,0.025505838057101337
1.992,0.025502063691862073
1.996,0.025509852827769856
2.0,0.025515141747213414
2.004,0.025523411693979706
2.008,0.02552855637016571
2.012,0.02553115274880164
2.016,0.02553324427603614
2.02,0.025518098733993223
2.024,0.025487423001220585
2.028,0.025468094404708673
2.032,0.02546670005321901
2.036,0.025457829092879587
2.04,0.025450929457060036
2.044,0.025453525835695965
2.048,0.02545710787659183
2.052,0.025455953930531416
2.056,0.02544989571371425
2.06,0.02543655321239073
2.064,0.025440640104688023
2.068,0.025453742200582292
2.072,0.025462204471691986
2.076,0.025471940891576717
2.08,0.025477782743507555
2.084,0.02547573929735891
2.088,0.025477085567762722
2.092,0.025491197366459852
2.096,0.025501078029602137
2.1,0.025506847759904198
2.104,0.025516055287844574
2.108,0.025526825451075093
2.112,0.025538845722537725
2.116,0.02555851088665059
2.12,0.025576132604614808
2.124,0.025589186619423224
2.128,0.025605221661554375
2.132,0.025608082486162483
2.136,0.02560926047276582
2.14,0.02561596778424197
2.144,0.025614861919267408
2.148,0.025623756920149753
2.152,0.02563241151560285
2.156,0.025639263070336548
2.16,0.02564895140913543
2.164,0.025642628746346086
2.168,0.025640657421826214
2.172,0.025652485368945443
2.176,0.025666428883842095
2.18,0.025681574425885013
2.184,0.025687632642702178
2.188,0.025682728371945424
2.192,0.025679843506794392
2.196,0.02567960310136514
2.2,0.02570001352230869
2.204,0.02571042307739533
2.208,0.025710182671966075
2.212,0.025716625537470048
2.216,0.02573367028240406
2.22,0.02574376731043267
2.224,0.02575968214984919
2.228,0.025751844932855556
2.232,0.025758215676730752
2.236,0.025779299232876206
2.24,0.025766557745125818
2.244,0.02576061973102328
2.248,0.025778962665275254
2.2520000000000002,0.02579146374759639
2.2560000000000002,0.025793170626144085
2.2600000000000002,0.025805719789551075
2.2640000000000002,0.025814807114776826
2.2680000000000002,0.025829976697362665
2.2720000000000002,0.02584918509115995
2.2760000000000002,0.025851396821109075
2.2800000000000002,0.025850339037220366
2.2840000000000003,0.025855363510691745
2.2880000000000003,0.02585507502417664
2.2920000000000003,0.02588067820239205
2.2960000000000003,0.02588334670265675
2.3000000000000003,0.025881038810535925
2.3040000000000003,0.025882144675510487
2.308,0.025898420123070892
2.312,0.025913156975884078
2.316,0.025924888760831606
2.32,0.02592476855811698
2.324,0.025926763923179778
2.328,0.02593847166758438
2.332,0.02594650120892142
2.336,0.02594308745182603
2.34,0.025936356099806955
2.344,0.025951573763478647
2.348,0.025967945373210753
2.352,0.025977537549837934
2.356,0.025988860645555733
2.36,0.02601018460713044
2.364,0.026015954337432503
2.368,0.026016507269919786
2.372,0.026028022689980987
2.376,0.02603744658280769
2.38,0.0260591551930692
2.384,0.026067617464178894
2.388,0.026066102909974603
2.392,0.02606490088282834
2.396,0.026059443679584304
2.4,0.02606463643685616
2.404,0.02606403542328303
2.408,0.026060501463473017
2.412,0.02606093419324567
2.416,0.026072569816021497
2.42,0.026062328544735336
2.424,0.026075791248773482
2.428,0.02610326958933706
2.432,0.026108774873666946
2.436,0.026110914481987293
2.44,0.026120434536985697
2.444,0.02612154040196026
2.448,0.02613228652464785
2.452,0.026142239309418912
2.456,0.026150966026500782
2.46,0.026149235107410164
2.464,0.026160846689643066
2.468,0.026186497948944322
2.472,0.02619051271961284
2.476,0.02617705001557469
2.48,0.026183420759449887
2.484,0.026190873327756718
2.488,0.02620601886979964
2.492,0.02622489069599597
2.496,0.026228665061235237
2.5,0.02622575615554128
2.504,0.026229626682952246
2.508,0.026224578168937942
2.512,0.02621936137112316
2.516,0.026210514451326664
2.52,0.02620926434309455
2.524,0.026226044642056384
2.528,0.026233232764391035
2.532,0.026242031603101682
2.536,0.026250902563441106
2.54,0.026262562226759857
2.544,0.026273813200848883
2.548,0.026263379605219316
2.552,0.02626015817246733
2.556,0.026258571496634263
2.56,0.026268355997604846
2.564,0.026277587566088147
2.568,0.026291290675555547
2.572,0.02629660363554203
2.576,0.026307494001487176
2.58,0.026311677055956172
2.584,0.026320523975752668
2.588,0.026321653881270154
2.592,0.02632802462514535
2.596,0.026331342220069037
2.6,0.026327639976458546
2.604,0.026334515571735172
2.608,0.026345213613336912
2.612,0.026337448517972054
2.616,0.026314754245450604
2.62,0.026315259096852034
2.624,0.02631816800254599
2.628,0.026321461556926752
2.632,0.026327832300801948
2.636,0.02634066995072404
2.64,0.02634552614039494
2.644,0.026325115719451394
2.648,0.026312879083102435
2.652,0.02632629370605473
2.656,0.02633259232830115
2.66,0.026337280234171576
2.664,0.02633903519380512
2.668,0.02634153541026935
2.672,0.026346463721569027
2.676,0.026344949167364736
2.68,0.026348507167717673
2.684,0.026348555248803526
2.688,0.026358435911945807
2.692,0.02637466327842036
2.696,0.0263965882535682
2.7,0.02640130019998155
2.704,0.026409353781861516
2.708,0.026423369418386945
2.712,0.026435774338536378
2.716,0.026443419231186614
2.72,0.026444741461047503
2.724,0.026442505690555455
2.728,0.02642070091812224
2.732,0.026418585350344817
2.736,0.026435125243877398
2.74,0.026445775204393288
2.744,0.026452915245642094
2.748,0.026460319732863072
2.7520000000000002,0.026465392287420304
2.7560000000000002,0.02646779634171283
2.7600000000000002,0.02647089757175019
2.7640000000000002,0.026480874397064175
2.7680000000000002,0.02648854333025733
2.7720000000000002,0.026492990830698507
2.7760000000000002,0.02649839995285669
2.7800000000000002,0.02649666903376607
2.7840000000000003,0.026507775764597542
2.7880000000000003,0.026517896833169078
2.7920000000000003,0.02653297025358322
2.7960000000000003,0.02654554345753313
2.8000000000000003,0.02654335576812693
2.8040000000000003,0.026542586470753325
2.8080000000000003,0.02654840428214124
2.8120000000000003,0.026554101890814526
2.816,0.02656335749984075
2.82,0.026567059743451242
2.824,0.02655677039107923
2.828,0.026565424986532325
2.832,0.026583960245127703
2.836,0.026589513610543448
2.84,0.026595115057045034
2.844,0.02659446596238605
2.848,0.02660862584216903
2.852,0.026609707666600667
2.856,0.026613818599440887
2.86,0.026616222653733413
2.864,0.0266261994790474
2.868,0.02662511765461576
2.872,0.02661026059908795
2.876,0.02660624582841943
2.88,0.026607856544795423
2.884,0.026606943004164264
2.888,0.02660487551747269
2.892,0.026606774720363786
2.896,0.02660913069357046
2.9,0.02661913155942737
2.904,0.026626968776421008
2.908,0.026638099547795405
2.912,0.02663898904788364
2.916,0.02662451664104263
2.92,0.0266377148991086
2.924,0.02665918310394086
2.928,0.02667750199764991
2.932,0.026691926323405068
2.936,0.02668827216088043
2.94,0.02668353617392415
2.944,0.026684593957812863
2.948,0.0266948111885561
2.952,0.026705990041016345
2.956,0.026711038555030653
2.96,0.026718683447680885
2.964,0.026726448543045747
2.968,0.026728419867565616
2.972,0.02672661682684622
2.976,0.026730439273171338
2.98,0.02673445404383986
2.984,0.026725126313184855
2.988,0.02672115962360219
2.992,0.02673560798990027
2.996,0.02674072862554335
3.0,0.026756234775730147
3.004,0.026756739627131577
3.008,0.026761331370830303
3.012,0.026777390453504378
3.016,0.026779337737481326
3.02,0.026786597981444754
3.024,0.026795853590470983
3.028,0.026803835050722168
3.032,0.026807609415961435
3.036,0.026802584942490056
3.04,0.026800445334169705
3.044,0.02680296959117686
3.048,0.026801719482944745
3.052,0.02680402737506557
3.056,0.02681965372796699
3.06,0.026829390147851722
3.064,0.02681888443059338
3.068,0.026836746553986855
3.072,0.026850545825625956
3.076,0.026852517150145826
3.08,0.026838765959592576
3.084,0.02684124213551388
3.088,0.026839847784024214
3.092,0.02683275582386126
3.096,0.026839415054251557
3.1,0.02686244589437396
3.104,0.026871701503400187
3.108,0.02686304690794709
3.112,0.02686047456985409
3.116,0.02686230165111641
3.12,0.02687518738212435
3.124,0.026879033868992392
3.128,0.026884418950607652
3.132,0.026886342194041672
3.136,0.026889804032222908
3.14,0.02688889049159175
3.144,0.026904156236349293
3.148,0.026903170574089356
3.152,0.026898386506047228
3.156,0.02689002039710924
3.16,0.026901295411741185
3.164,0.026904709168836572
3.168,0.026905358263495556
3.172,0.026930480630852457
3.176,0.02693247599591525
3.18,0.02693108164442559
3.184,0.026925624441181552
3.188,0.02692848526578966
3.192,0.026918460359389825
3.196,0.026914541750893004
3.2,0.026920936535311125
3.204,0.026935865712467713
3.208,0.026942597064486786
3.212,0.026945145362036866
3.216,0.026941899888741957
3.22,0.02694091422648202
3.224,0.026943462524032097
3.228,0.026951155497768182
3.232,0.026949256294877086
3.236,0.026951684389712537
3.24,0.02696901762116165
3.244,0.026967719431843687
3.248,0.026963103647602037
3.2520000000000002,0.026975869175895353
3.2560000000000002,0.026986543176954172
3.2600000000000002,0.026977071203041617
3.2640000000000002,0.026972166932284863
3.2680000000000002,0.02696832044541682
3.2720000000000002,0.026966301039811097
3.2760000000000002,0.02695812725521651
3.2800000000000002,0.026973561283774528
3.2840000000000003,0.026970916824052747
3.2880000000000003,0.02697704716249869
3.2920000000000003,0.026983297703659263
3.2960000000000003,0.02697760009498597
3.3000000000000003,0.026984499730805526
3.3040000000000003,0.026985485393065462
3.3080000000000003,0.026979811824935095
3.3120000000000003,0.02699017329893589
3.3160000000000003,0.02698538923089376
3.3200000000000003,0.026987023987812678
3.3240000000000003,0.02700457358414812
3.3280000000000003,0.027011809787568626
3.332,0.027002217610941445
3.336,0.027007506530385004
3.34,0.02701402151751775
3.344,0.027015824558237145
3.348,0.027026883207982765
3.352,0.027034792546605176
3.356,0.027037292763069404
3.36,0.02704993808864809
3.364,0.02704512998006304
3.368,0.027061140981651265
3.372,0.027075925915550303
3.376,0.027073449739629
3.38,0.027078281888756977
3.384,0.027086672038237895
3.388,0.027105183256290348
3.392,0.02711415037880147
3.396,0.027104125472401635
3.4,0.027096672904094805
3.404,0.027106577607780014
3.408,0.027111602081251393
3.412,0.027106649729408787
3.416,0.027111505919079692
3.42,0.027128983393786357
3.424,0.027142301854566953
3.428,0.027149970787760113
3.432,0.027165693302833235
3.436,0.027184733412830044
3.44,0.027171799600736252
3.444,0.027171438992592372
3.448,0.027181560061163908
3.452,0.027191801332450072
3.456,0.02719829227903989
3.46,0.02720769213132367
3.464,0.027212836807509678
3.468,0.027212548320994574
3.472,0.02720846142869728
3.476,0.027223198281510465
3.48,0.027244570324171023
3.484,0.027249811162528732
3.488,0.02725858596069645
3.492,0.027269235921212345
3.496,0.027275005651514406
3.5,0.027285607530944448
3.504,0.027326019683601814
3.508,0.027327341913462706
3.512,0.027323134818450785
3.516,0.027327053426947603
3.52,0.027346430104545363
3.524,0.027356262686601795
3.528,0.027366023147029454
3.532,0.027368186795892726
3.536,0.027359219673381605
3.54,0.027364580714453936
3.544,0.027376961594060452
3.548,0.027394775636368073
3.552,0.0274038389210509
3.556,0.027410185624383167
3.56,0.027411604016415757
3.564,0.02741701313857394
3.568,0.027433000099619242
3.572,0.02744578966845548
3.576,0.02743651001888633
3.58,0.02742244630127505
3.584,0.027422470341817978
3.588,0.027426725517915748
3.592,0.027446727249629568
3.596,0.027457858021003964
3.6,0.02745141515549999
3.604,0.0274385775055779
3.608,0.027440332465211447
3.612,0.02745756953448886
3.616,0.027467834846317946
3.62,0.027473388211733684
3.624,0.02747603267145546
3.628,0.027468099292290125
3.632,0.027459588940094582
3.636,0.027463892197278204
3.64,0.02748249957750236
3.644,0.02748838951051905
3.648,0.027495289146338597
3.652,0.027507165174543678
3.656,0.027505506377081834
3.66,0.027512598337244787
3.664,0.027522070311157342
3.668,0.027521709703013462
3.672,0.027518079581031748
3.676,0.02751827190537515
3.68,0.027518151702660525
3.684,0.027524859014136673
3.688,0.027529522879464172
3.692,0.02754279325915892
3.696,0.027556520409169245
3.7,0.02755779455794428
3.704,0.027560631342009465
3.708,0.02753589362333937
3.712,0.027532263501357655
3.716,0.02754608681353968
3.72,0.027544403975534912
3.724,0.02753817747491727
3.728,0.027547601367743972
3.732,0.027553419179131886
3.736,0.027559813963550006
3.74,0.027566761680455406
3.744,0.027560463058208987
3.748,0.027566449153397378
3.7520000000000002,0.027578253059973683
3.7560000000000002,0.027587316344656505
3.7600000000000002,0.027606548778996716
3.7640000000000002,0.027616958334083355
3.7680000000000002,0.027603303305701807
3.7720000000000002,0.027608952833289242
3.7760000000000002,0.027619482591090507
3.7800000000000002,0.02762282422655712
3.7840000000000003,0.02762912284880354
3.7880000000000003,0.027641070998637395
3.7920000000000003,0.0276554472433067
3.7960000000000003,0.027639796849862355
3.8000000000000003,0.027632945295128657
3.8040000000000003,0.02764688881002531
3.8080000000000003,0.02765342783770098
3.8120000000000003,0.02764580698559367
3.8160000000000003,0.027640566147235965
3.8200000000000003,0.027632849132956955
3.8240000000000003,0.027630661443550756
3.8280000000000003,0.027631166294952186
3.8320000000000003,0.027629459416404493
3.8360000000000003,0.027636503295481594
3.84,0.027643066363700192
3.844,0.027641239282437873
3.848,0.027641263322980798
3.852,0.027651480553724034
3.856,0.027659942824833725
3.86,0.027650302567120696
3.864,0.027652562378155672
3.868,0.027658211905743108
3.872,0.02767184289358173
3.876,0.027687974097884583
3.88,0.02769340726058569
3.884,0.027704441869788387
3.888,0.027711726154294743
3.892,0.027722255912096008
3.896,0.02772285692566914
3.9,0.027727112101766913
3.904,0.027734252143015715
3.908,0.027746128171220796
3.912,0.02775838884811268
3.916,0.027765913538048286
3.92,0.027776106728248606
3.924,0.027777789566253375
3.928,0.027783631418184213
3.932,0.027797190284394063
3.936,0.027808248934139683
3.94,0.027816518880905975
3.944,0.02781101359657609
3.948,0.027819716273115035
3.952,0.02783212119326447
3.956,0.027844285707984653
3.96,0.027853877884611834
3.964,0.02784212205912138
3.968,0.02783399635561264
3.972,0.02782486094930104
3.976,0.027840607504917087
3.98,0.027847218654221535
3.984,0.02785003139774379
3.988,0.02785846962831056
3.992,0.027864792291099904
3.996,0.02788313522535188
4.0,0.02789313609120879
4.0040000000000004,0.027896549848304177
4.008,0.027904891916699242
4.0120000000000005,0.027905252524843122
4.016,0.027898064402508468
4.0200000000000005,0.027904483227469513
4.024,0.027911118417316885
4.0280000000000005,0.02791647945838922
4.032,0.027917008350333575
4.0360000000000005,0.027920902918287468
4.04,0.027921720296746926
4.0440000000000005,0.02791991725602753
4.048,0.0279286439731094
4.0520000000000005,0.027932370257262817
4.056,0.027922802121178564
4.0600000000000005,0.02793225005454819
4.064,0.027957252219190466
4.0680000000000005,0.02797362382892257
4.072,0.027960305368141973
4.0760000000000005,0.027961675679088714
4.08,0.02796525771998458
4.0840000000000005,0.027962877706234977
4.088,0.027974200801952776
4.0920000000000005,0.02797701354547503
4.096,0.027980042653883614
4.1,0.02798244670817614
4.104,0.027984514194867714
4.108,0.027993986168780266
4.112,0.02799158211448774
4.116,0.027996606587959123
4.12,0.028012377184118094
4.124,0.028019829752424924
4.128,0.02802593605032794
4.132,0.028026897672044953
4.136,0.0280176180224758
4.14,0.028023580077121267
4.144,0.02802579180707039
4.148,0.028016848725102194
4.152,0.02800874706213638
4.156,0.0280083864539925
4.16,0.028022979063548135
4.164,0.028032931848319193
4.168,0.028044735754895498
4.172,0.028050289120311236
4.176,0.0280584388643629
4.18,0.028062814243175298
4.184,0.02806644436515701
4.188,0.028077286650016305
4.192,0.028091999462286566
4.196,0.028096014232955085
4.2,0.02808507578592409
4.204,0.028084402650722182
4.208,0.0280926966380314
4.212,0.02810385144994872
4.216,0.028108635517990848
4.22,0.028106976720529003
4.224,0.028110294315452693
4.228,0.028110727045225346
4.232,0.02810974138296541
4.236,0.028106712274556828
4.24,0.02810024536850993
4.244,0.02810923653156398
4.248,0.028110871288482896
4.252,0.02810517367980961
4.256,0.028095918070783384
4.26,0.028096735449242842
4.264,0.028089403083650637
4.268,0.028102481139001982
4.272,0.0280906051107969
4.276,0.028072718946860503
4.28,0.028068896500535387
4.284,0.028067886797732526
4.288,0.02807608462287004
4.292,0.028084018002035378
4.296,0.02809608635458386
4.3,0.028092071583915343
4.304,0.02809808171964666
4.308,0.02810587085555444
4.312,0.028102264774115652
4.316,0.028096615246528216
4.32,0.028110703004682422
4.324,0.028099908800908978
4.328,0.028087383678044916
4.332,0.02808538831298212
4.336,0.028080075352995636
4.34,0.028085460434610895
4.344,0.028085869123840625
4.348,0.02808050808276829
4.352,0.028070795703426483
4.356,0.028072911271203906
4.36,0.028068992662707088
4.364,0.028061540094400258
4.368,0.028059737053680863
4.372,0.028054736620752408
4.376,0.028045913741498837
4.38,0.02805360671523492
4.384,0.028046154146928088
4.388,0.028052621052974985
4.392,0.028057549364274664
4.396,0.028049976593253204
4.4,0.028046562836157817
4.404,0.028046995565930474
4.408,0.02805264509351791
4.412,0.02805264509351791
4.416,0.028066228000270685
4.42,0.028060578472683246
4.424,0.028046634957786594
4.428,0.02804913517425082
4.432,0.02806163625657196
4.436,0.028055313593782615
4.44,0.02806187666200121
4.444,0.02806370374326353
4.448,0.028062621918831895
4.452,0.02806944943302267
4.456,0.02807521916332473
4.46,0.0280769020013295
4.464,0.028068800338363686
4.468,0.028074017136178468
4.472,0.028085700840040147
4.476,0.028090725313511526
4.48,0.028091759056857315
4.484,0.02808666246175716
4.488,0.028067285784159395
4.492,0.02807584421744079
4.496,0.02808740771858784
4.5,0.028086277813070354
4.5040000000000004,0.028075147041695957
4.508,0.02805502510726751
4.5120000000000005,0.02805548187758309
4.516,0.028063847986521083
4.5200000000000005,0.028051611350172125
4.524,0.02802545523946944
4.5280000000000005,0.02800696806195991
4.532,0.028007593116075966
4.5360000000000005,0.028012232940860544
4.54,0.027994947790497278
4.5440000000000005,0.02799951549365308
4.548,0.028013194562577552
4.5520000000000005,0.02802091157685656
4.556,0.028035383983697572
4.5600000000000005,0.028046827282129996
4.564,0.028053534593606145
4.5680000000000005,0.028045889700955912
4.572,0.02804427898457992
4.5760000000000005,0.028045961822584686
4.58,0.028036129240528253
4.5840000000000005,0.028032835686147492
4.588,0.028040528659883577
4.5920000000000005,0.0280356965107556
4.596,0.028031777902258782
4.6000000000000005,0.028024734023181678
4.604,0.028040264213911398
4.6080000000000005,0.02806055443214032
4.612,0.02807161308188594
4.616,0.028081806272086254
4.62,0.0280975528277023
4.624,0.028110703004682422
4.628,0.028122410749087026
4.632,0.028135609007152992
4.636,0.028137916899273818
4.64,0.02814710038667127
4.644,0.028158591766189546
4.648,0.02817133325393994
4.652,0.028177944403244386
4.656,0.028188858809732455
4.66,0.02819472470220622
4.664,0.02819669602672609
4.668,0.028217923826129098
4.672,0.028229920057048805
4.676,0.02822619377289539
4.68,0.02822775640818553
4.684,0.028239007382274556
4.688,0.0282546577757189
4.692,0.028272351615311896
4.696,0.028259730330276133
4.7,0.028259201438331775
4.704,0.028279708021447025
4.708,0.02828744907626896
4.712,0.02828127065673717
4.716,0.028276462548152116
4.72,0.028283241981257038
4.724,0.028284323805688676
4.728,0.028273673845172785
4.732,0.028257470519241157
4.736,0.028249753504962147
4.74,0.028250138153648952
4.744,0.028243575085430354
4.748,0.028242974071857222
4.752,0.02825927355996055
4.756,0.02826689441206786
4.76,0.028266726128267382
4.764,0.028269803317761816
4.768,0.028268649371701406
4.772,0.02827033220970617
4.776,0.028276342345437487
4.78,0.028273313237028905
4.784,0.028272904547799176
4.788,0.028263023884656895
4.792,0.02825573960015054
4.796,0.028257206073268978
4.8,0.028258480222044018
4.804,0.028254633735175977
4.808,0.02827393829114496
4.812,0.02828470845437548
4.816,0.028282256318997105
4.82,0.028275188399377076
4.824,0.028274635466889794
4.828,0.028292641833540817
4.832,0.028290357981962916
4.836,0.028294036185030482
4.84,0.028295743063578176
4.844,0.028295045887833343
4.848,0.028289444441331756
4.852,0.028302258050710922
4.856,0.028312691646340486
4.86,0.028318293092842072
4.864,0.02831485529520376
4.868,0.02831800460632697
4.872,0.02832692364775224
4.876,0.028328726688471636
4.88,0.0283275487018683
4.884,0.02833846310835637
4.888,0.02834358374399945
4.892,0.028346540730779256
4.896,0.028346901338923137
4.9,0.028350771866334105
4.904,0.028350363177104373
4.908,0.02836276809725381
4.912,0.02836089293490564
4.916,0.028343295257484347
4.92,0.028342021108709307
4.924,0.028360315961875434
4.928,0.028374836449802293
4.932,0.028367023273351583
4.936,0.028359378380701347
4.94,0.028367696408553487
4.944,0.028378995463728362
4.948,0.028371230368363504
4.952,0.02837236027388099
4.956,0.028374908571431066
4.96,0.028380125369245852
4.964,0.028384861356202128
4.968,0.0283936842354557
4.972,0.028403805304027235
4.976,0.02840661804754949
4.98,0.02840671420972119
4.984,0.02841082514256141
4.988,0.028427653522609096
4.992,0.02844118834827602
4.996,0.028445587767631342
5.0,0.028447198484007334
5.0040000000000004,0.02845164598444851
5.008,0.028469580229470756
5.0120000000000005,0.02848133605496121
5.016,0.028491721569504923
5.0200000000000005,0.02850294850305102
5.024,0.02850290042196517
5.0280000000000005,0.028494967042799833
5.032,0.028492202380363426
5.0360000000000005,0.028481095649531957
5.04,0.02848640860951844
5.0440000000000005,0.02849066378561621
5.048,0.028488692461096338
5.0520000000000005,0.02849234662362098
5.056,0.02849696240786263
5.0600000000000005,0.028484244960655165
5.064,0.02848249000102162
5.0680000000000005,0.02848737023123545
5.072,0.0284898944882426
5.0760000000000005,0.02849797211066549
5.08,0.02850453517888409
5.0840000000000005,0.028512516639135274
5.088,0.028511963706647995
5.0920000000000005,0.028515665950258486
5.096,0.02851953647766945
5.1000000000000005,0.02851674777469012
5.104,0.02850929520638329
5.1080000000000005,0.028511651179589967
5.112,0.02852523408634274
5.1160000000000005,0.02852838339746595
5.12,0.028538480425494558
5.124,0.02854071619598661
5.128,0.02853934588503987
5.132,0.028547976439950037
5.136,0.028554539508168636
5.14,0.0285625930900486
5.144,0.02856622321203032
5.148,0.02857259395590551
5.152,0.028581801483845887
5.156,0.028590023349526327
5.16,0.028584662308453995
5.164,0.028576777010374508
5.168,0.02859725955294683
5.172,0.02858687403840312
5.176,0.028593605390422192
5.18,0.02860254847239039
5.184,0.028603029283248895
5.188,0.028609736594725044
5.192,0.028611034784043008
5.196,0.028605793945685302
5.2,0.028611034784043008
5.204,0.02861685259543092
5.208,0.028605144851026318
5.212,0.028598726026065273
5.216,0.028610674175899128
5.22,0.028610553973184502
5.224,0.028612717622047777
5.228,0.028610698216442056
5.232,0.0286170208792314
5.236,0.02861985766329658
5.24,0.02861218873010342
5.244,0.028623583947449995
5.248,0.028636181191942833
5.252,0.02864264809798973
5.256,0.028642768300704356
5.26,0.028644451138709125
5.264,0.02864553296314076
5.268,0.028648778436435672
5.272,0.02866529428942533
5.276,0.02866553469485458
5.28,0.02866024577541102
5.284,0.028667746424803704
5.288,0.028666424194942815
5.292,0.028675247074196386
5.296,0.028674405655194003
5.3,0.028674814344423732
5.304,0.02869746053585933
5.308,0.028698133671061235
5.312,0.02869224373804455
5.316,0.028689959886466648
5.32,0.028692460102930875
5.324,0.028706619982713854
5.328,0.028714601442965042
5.332,0.02871039434795312
5.336,0.028711524253470608
5.34,0.02871003373980924
5.344,0.028719746119151048
5.348,0.028724986957508757
5.352,0.02872145299769874
5.356,0.028710514550667747
5.36,0.02871878449743404
5.364,0.028729915268808436
5.368,0.02873277609341654
5.372,0.028735757120739273
5.376,0.02873505994499444
5.38,0.02872791990374564
5.384,0.02871784691625995
5.388,0.028724770592622427
5.392,0.028735757120739273
5.396,0.028738906431862485
5.4,0.02873354539079015
5.404,0.028732415485272663
5.408,0.028735757120739273
5.412,0.02873236740418681
5.416,0.028733160742103345
5.42,0.028722751187016705
5.424,0.028706139171855348
5.428,0.02869837407649049
5.432,0.02868568066982595
5.436,0.028691041710898285
5.44,0.02869517668428143
5.444,0.028699455900922127
5.448,0.028700489644267912
5.452,0.02870111469838397
5.456,0.028699335698207498
5.46,0.028695994062740888
5.464,0.02869171484610019
5.468,0.02869096958926951
5.472,0.02868911846746426
5.476,0.028686714413171735
5.48,0.028699984792866482
5.484,0.028690464737868078
5.488,0.02867197756035855
5.492,0.028673828682163796
5.496,0.0286742133308506
5.5,0.0286653664110541
5.5040000000000004,0.02868041579092532
5.508,0.02869770094128858
5.5120000000000005,0.028682675601960292
5.516,0.028685199858967444
5.5200000000000005,0.028686834615886364
5.524,0.028683637223677304
5.5280000000000005,0.028693517886819585
5.532,0.028690849386554883
5.5360000000000005,0.02868705098077269
5.54,0.028692532224559652
5.5440000000000005,0.028687339467287794
5.548,0.028694623751794147
5.5520000000000005,0.02869861448191974
5.556,0.02870724503682991
5.5600000000000005,0.028714288915907014
5.564,0.028707629685516715
5.5680000000000005,0.028723784930362494
5.572,0.028735684999110497
5.5760000000000005,0.02873496378282274
5.58,0.028735156107166142
5.5840000000000005,0.028739603607607314
5.588,0.028740517148238477
5.5920000000000005,0.02874561374333863
5.596,0.028726910200942778
5.6000000000000005,0.028734699336850564
5.604,0.028748354365232112
5.6080000000000005,0.02875551844702384
5.612,0.02876713002925674
5.6160000000000005,0.028767971448259128
5.62,0.02876845225911763
5.6240000000000006,0.02877018317820825
5.628,0.028784992152650214
5.632,0.028787324085313964
5.636,0.028769101353776614
5.64,0.028764894258764693
5.644,0.02877585674633861
5.648,0.028772539151414925
5.652,0.028781578395554827
5.656,0.028775231692222555
5.66,0.028780160003522234
5.664,0.028792949572358475
5.668,0.028803719735588994
5.672,0.028810859776837797
5.676,0.02882357722404526
5.68,0.028814057169046857
5.684,0.028809321182090578
5.688,0.028822423277984847
5.692,0.02883139040049597
5.696,0.02882535622422173
5.7,0.028834419508904554
5.704,0.028850622834836182
5.708,0.028860407335806762
5.712,0.028860888146665268
5.716,0.028848314942715357
5.72,0.02884732928045542
5.724,0.028840093077034917
5.728,0.028851055564608836
5.732,0.028862066133268607
5.736,0.028875673080564306
5.74,0.028883486257015017
5.744,0.028891443676723277
5.748,0.028906300732251092
5.752,0.028925316801704973
5.756,0.028926566909937088
5.76,0.028942169222295585
5.764,0.028944813682017363
5.768,0.028936111005478417
5.772,0.028947337939024514
5.776,0.02895180948000862
5.78,0.028945318533418793
5.784,0.0289457993442773
5.788,0.028948900574314658
5.792,0.028948612087799554
5.796,0.028946785006537235
5.8,0.028934307964759022
5.804,0.028926999639709742
5.808,0.028917503625254262
5.812,0.02891483512498956
5.816,0.028928898842600838
5.82,0.028924643666503068
5.824,0.0289164939224514
5.828,0.028921806882437884
5.832,0.028936567775794
5.836,0.028933851194443444
5.84,0.028935197464847257
5.844,0.02894421266844423
5.848,0.02894613591187825
5.852,0.02894923714191561
5.856,0.028948756331057104
5.86,0.02894334720889892
5.864,0.028940173857232788
5.868,0.028937745762397337
5.872,0.028953684642356793
5.876,0.02896366146767078
5.88,0.028969238873629437
5.884,0.02897673952302212
5.888,0.02897993691523118
5.892,0.028968902306028485
5.896,0.028954093331586522
5.9,0.028947506222824992
5.904,0.02893406755932977
5.908,0.028937697681311485
5.912,0.02894255387098239
5.916,0.02894986219603167
5.92,0.028951040182635016
5.924,0.028944693479302737
5.928,0.02895541556144741
5.932,0.028955487683076188
5.936,0.028953684642356793
5.94,0.028956256980449797
5.944,0.028958588913113547
5.948,0.028953516358556315
5.952,0.028964142278529285
5.956,0.028969479279058692
5.96,0.02896979180611672
5.964,0.02897248434692435
5.968,0.028976931847365522
5.972,0.028982340969523707
5.976,0.02899815964676853
5.98,0.029011021337233548
5.984,0.02901871431096963
5.988,0.02900967506682973
5.992,0.02901816137848235
5.996,0.029020180784088072
6.0,0.02900582857996169
6.0040000000000004,0.028995899835733557
6.008,0.02898592301041957
6.0120000000000005,0.028961906508037233
6.016,0.028955968493934694
6.0200000000000005,0.028956906075108778
6.024,0.028953636561270944
6.0280000000000005,0.028954886669503056
6.032,0.028957819615739937
6.0360000000000005,0.02896435864341561
6.04,0.02896156994043628
6.0440000000000005,0.028956208899363945
6.048,0.028954261615387
6.0520000000000005,0.028961137210663627
6.056,0.028965007738074592
6.0600000000000005,0.028955896372305917
6.064,0.02896399803527173
6.0680000000000005,0.028968637860056306
6.072,0.028976619320307494
6.0760000000000005,0.02897726841496648
6.08,0.028966426130107182
6.0840000000000005,0.028967676238339297
6.088,0.028988399186340875
6.0920000000000005,0.028998039444053905
6.096,0.029008593242398094
6.1000000000000005,0.029027008298278846
6.104,0.029023570500640535
6.1080000000000005,0.02902866709574069
6.112,0.02904871690854036
6.1160000000000005,0.029059823639371832
6.12,0.029058789896026043
6.1240000000000006,0.029055712706531612
6.128,0.029054582801014122
6.132000000000001,0.029069752383599965
6.136,0.029080089817057828
6.140000000000001,0.029077637681679452
6.144,0.029082806398408382
6.148,0.029073911397526034
6.152,0.029060713139460067
6.156,0.02908698945287738
6.16,0.029105500670929832
6.164,0.029091052304631746
6.168,0.029082349628092804
6.172,0.02909809618370885
6.176,0.029116487199046675
6.18,0.029124468659297863
6.184,0.029133964673753343
6.188,0.02912855555159516
6.192,0.029136152363159543
6.196,0.029152067202576067
6.2,0.029147715864306593
6.204,0.02915641854084554
6.208,0.029169135988053003
6.212,0.02916295756852121
6.216,0.0291415374447748
6.22,0.029133075173665108
6.224,0.029133123254750957
6.228,0.0291346858900411
6.232,0.029113001320322515
6.236,0.029096653751133333
6.24,0.029097903859365448
6.244,0.02910336106260948
6.248,0.029097206683620615
6.252,0.02909307171023747
6.256,0.029092638980464814
6.26,0.029101365697546684
6.264,0.02910393803563969
6.268,0.02910439480595527
6.272,0.02910336106260948
6.276,0.029130959605887685
6.28,0.029136729336189746
6.284,0.029145311810014066
6.288,0.029155432878585602
6.292,0.029158630270794662
6.296,0.02915711571659037
6.3,0.029165818393129317
6.304,0.029171852569403557
6.308,0.02916728486624776
6.312,0.029173655610122952
6.316,0.02918360839489401
6.32,0.02919671049078828
6.324,0.02921041360025568
6.328,0.029220606790455992
6.332,0.0292190922362517
6.336,0.029216255452186517
6.34,0.029226376520758053
6.344,0.029238492954392386
6.348,0.029247652401246913
6.352,0.029240584481626884
6.356,0.029237242846160274
6.36,0.02924106529248539
6.364,0.029250393023140392
6.368,0.029247171590388407
6.372,0.029251282523228627
6.376,0.029250224739339917
6.38,0.029268255146533865
6.384,0.02926315855143371
6.388,0.02925892741587886
6.392,0.029268255146533865
6.396,0.029279914809852616
6.4,0.029281934215458338
6.404,0.029274986498552938
6.408,0.0292831362426046
6.412,0.029287583743045773
6.416,0.029286405756442438
6.42,0.029302705244545764
6.424,0.029312850353660228
6.428,0.02935458473617849
6.432,0.02941415720154729
6.436,0.029403459159945546
6.44,0.029390429185680054
6.444,0.029373216156945568
6.448,0.029373672927261146
6.452,0.02938602976632473
6.456,0.029391895658798496
6.46,0.029377447292500414
6.464,0.029368143602388336
6.468,0.029371148670253994
6.472,0.02937456242734938
6.476,0.029384899860807244
6.48,0.02939355445626034
6.484,0.029371485237854947
6.488,0.02935441645237801
6.492,0.029371148670253994
6.496,0.029380019630593415
6.5,0.029377038603270685
6.5040000000000004,0.029382399644343016
6.508,0.02939090999653856
6.5120000000000005,0.029395453659151437
6.516,0.02940415633569038
6.5200000000000005,0.02940268986257194
6.524,0.029409661620020264
6.5280000000000005,0.029421898256369226
6.532,0.02942307624297256
6.5360000000000005,0.029431129824852527
6.54,0.02943653894701071
6.5440000000000005,0.029440409474421676
6.548,0.02944449636671897
6.5520000000000005,0.029445001218120402
6.556,0.029452045097197507
6.5600000000000005,0.02946663770675314
6.564,0.029466108814808784
6.5680000000000005,0.029442645244913728
6.572,0.029438702595873983
6.5760000000000005,0.029442693325999577
6.58,0.029441948069168895
6.5840000000000005,0.029443270299029784
6.588,0.029458944733017054
6.5920000000000005,0.029470580355792884
6.596,0.02945521844886364
6.6000000000000005,0.02945004973213471
6.604,0.029450482461907363
6.6080000000000005,0.029447020623726124
6.612,0.029436130257780982
6.6160000000000005,0.029430360527478917
6.62,0.02944877558335967
6.6240000000000006,0.029443606866630737
6.628,0.029438293906644254
6.632000000000001,0.029448078407614837
6.636,0.02945846392215855
6.640000000000001,0.02944399151531754
6.644,0.029429663351734085
6.648000000000001,0.029432692460142667
6.652,0.029438654514788134
6.656000000000001,0.029432812662857296
6.66,0.029421994418540928
6.664,0.02942096067519514
6.668,0.029424446553919303
6.672,0.02943591389289465
6.676,0.029441851906997194
6.68,0.02945120367819512
6.684,0.02946130070622373
6.688,0.029459233219532158
6.692,0.02944288565034298
6.696,0.02944324625848686
6.7,0.029443871312602916
6.704,0.029451371961995598
6.708,0.02946454617951864
6.712,0.029475941396865216
6.716,0.029485798019464573
6.72,0.029474619167004328
6.724,0.029474883612976507
6.728,0.029477816559213388
6.732,0.029472407437055204
6.736,0.029469642774618797
6.74,0.029493010182342152
6.744,0.029504429440231652
6.748,0.029511449278765832
6.752,0.029509501994788884
6.756,0.02950358802122927
6.76,0.02950546318357744
6.764,0.029506256521493975
6.768,0.029509766440761063
6.772,0.02948983683067602
6.776,0.02948430750580321
6.78,0.029480773545993193
6.784,0.02948161496499558
6.788,0.02949957325056075
6.792,0.0295110405895361
6.796,0.029511833927452633
6.8,0.029507578751354863
6.804,0.029505823791721317
6.808,0.029509429873160107
6.812,0.029525729361263436
6.816,0.029530513429305565
6.82,0.029538999740958184
6.824,0.029542894308912073
6.828,0.029553952958657696
6.832,0.029550587282648158
6.836,0.02953308576739857
6.84,0.02953342233499952
6.844,0.029525056226061528
6.848,0.02950378034557267
6.852,0.029505342980862815
6.856,0.029512843630255494
6.86,0.02951053573813467
6.864,0.029513564846543255
6.868,0.029512555143740394
6.872,0.029499861737075854
6.876,0.029498779912644216
6.88,0.029492697655284124
6.884,0.029502145588653755
6.888,0.029503900548287297
6.892,0.029499645372189527
6.896,0.0295110405895361
6.9,0.02951166564365216
6.904,0.02952652269917997
6.908,0.029539192065301586
6.912,0.02954104318710683
6.916,0.029544529065830993
6.92,0.029554818418203007
6.924,0.029553183661284087
6.928,0.029568641730385033
6.932,0.029579459974701402
6.936,0.029583402623741144
6.94,0.029588715583727627
6.944,0.029592033178651313
6.948,0.02959955786858692
6.952,0.02960991934258771
6.956,0.029609390450643352
6.96,0.02961107328864812
6.964,0.029627492979466076
6.968,0.029634705142343655
6.972,0.02964655713000581
6.976,0.02965167776564889
6.98,0.029654009698312642
6.984,0.02965792830680946
6.988,0.029672857483966048
6.992,0.02967410759219816
6.996,0.0296685301862395
7.0,0.029667544523979565
7.0040000000000004,0.02967021302424427
7.008,0.029679781160328524
7.0120000000000005,0.02968345936339609
7.016,0.02968985414781421
7.0200000000000005,0.029698460662181455
7.024,0.0297048794871425
7.0280000000000005,0.029706081514288763
7.032,0.029714495704312605
7.0360000000000005,0.02972197231316236
7.04,0.02972425616474026
7.0440000000000005,0.029729112354411166
7.048,0.029736011990230713
7.0520000000000005,0.02974310395039367
7.056,0.029745051234370618
7.0600000000000005,0.0297550280596846
7.064,0.029759403438497
7.0680000000000005,0.02977438069673944
7.072,0.029782891048934983
7.0760000000000005,0.029792579387733862
7.08,0.02979005513072671
7.0840000000000005,0.029782530440791103
7.088,0.029778876278266465
7.0920000000000005,0.029779573454011294
7.096,0.029771303507245005
7.1000000000000005,0.02978529510322751
7.104,0.029798301036950074
7.1080000000000005,0.029794598793339584
7.112,0.029802676415762473
7.1160000000000005,0.029813999511480272
7.12,0.02982265410693337
7.1240000000000006,0.029809431808324474
7.128,0.029810225146241005
7.132000000000001,0.02981476880885388
7.136,0.029813735065508096
7.140000000000001,0.029818350849749747
7.144,0.029821428039244178
7.148000000000001,0.029820682782413496
7.152,0.029828399796692506
7.156000000000001,0.029835251351426204
7.16,0.029837895811147985
7.164000000000001,0.029846838893116182
7.168,0.029861695948643994
7.172,0.029874485517480235
7.176,0.029890929248841114
7.18,0.029894439168108203
7.184,0.02989114561372744
7.188,0.02988241889664557
7.192,0.02988181788307244
7.196,0.02988241889664557
7.2,0.029888933883778317
7.204,0.029894631492451605
7.208,0.029889318532465122
7.212,0.02990256487161694
7.216,0.029909656831779895
7.22,0.029933192523303728
7.224,0.029937063050714696
7.228,0.029922951252017566
7.232,0.029927302590287037
7.236,0.029930620185210723
7.24,0.02993694284800007
7.244,0.029931750090728213
7.248,0.029927062184857786
7.252,0.029929346036435687
7.256,0.029945958051597044
7.26,0.029945789767796566
7.264,0.029943049145903084
7.268,0.02995216051167176
7.272,0.029950309389866515
7.276,0.029946919673314053
7.28,0.029956055079625652
7.284,0.029969133134976997
7.288,0.029981417852411808
7.292,0.029994880556449954
7.296,0.02998956759646347
7.3,0.03000021755697936
7.304,0.030020603937379986
7.308,0.03002346476198809
7.312,0.03001961827512005
7.316,0.030024017694475373
7.32,0.03002757569482831
7.324,0.030033393506216224
7.328,0.030040725871808432
7.332,0.030052625940556434
7.336,0.03005493383267726
7.34,0.030040317182578703
7.344,0.03004575034527981
7.348,0.030056760913939582
7.352,0.030056304143624
7.356,0.030069742807119222
7.36,0.030070656347750382
7.364,0.03006411732007471
7.368,0.0300632518605294
7.372,0.030070247658520653
7.376,0.030067531077170098
7.38,0.030053948170417327
7.384,0.030042240426012723
7.388,0.030040221020407
7.392,0.03004305780447218
7.396,0.030041663452982516
7.4,0.03004245679089905
7.404,0.03004538973713593
7.408,0.030045341656050082
7.412,0.030049524710519075
7.416,0.030039139195975364
7.42,0.030035076344220993
7.424,0.03004026910149285
7.428,0.03002858539763117
7.432,0.030025796694651843
7.436,0.030041014358323532
7.44,0.030051351791781398
7.444,0.03005245765675596
7.448,0.030047000453511923
7.452,0.03004514933170668
7.456,0.0300335617900167
7.46,0.030046976412969
7.464,0.030058660116830678
7.468,0.030057650414027817
7.472,0.030060943968408575
7.476,0.03006017467103497
7.48,0.03007250746955563
7.484,0.03008248429486961
7.488,0.030085128754591392
7.492,0.030072819996613657
7.496,0.030065607833736078
7.5,0.030079262862117626
7.5040000000000004,0.030084095011245607
7.508,0.03007772426737041
7.5120000000000005,0.030071401604581067
7.516,0.03007387778050237
7.5200000000000005,0.030072819996613657
7.524,0.03007580102393639
7.5280000000000005,0.030084335416674858
7.532,0.03008407097070268
7.5360000000000005,0.030082388132697913
7.54,0.030084720065361663
7.5440000000000005,0.030093134255385505
7.548,0.03008568168707867
7.5520000000000005,0.030081041862294097
7.556,0.03008681159259616
7.5600000000000005,0.03007520001036326
7.564,0.0300655357121073
7.5680000000000005,0.030066401171652612
7.572,0.03007269979389903
7.5760000000000005,0.030071545847838617
7.58,0.030087244322368815
7.5840000000000005,0.030083325713871997
7.588,0.03006858886105881
7.5920000000000005,0.03008274874084179
7.596,0.03008416713287438
7.6000000000000005,0.030079719632433208
7.604,0.03007697901053973
7.6080000000000005,0.030082219848897435
7.612,0.030090177268605696
7.6160000000000005,0.030086643308795683
7.62,0.030085128754591392
7.6240000000000006,0.0300858018897933
7.628,0.03008159479478138
7.632000000000001,0.03007940710537518
7.636,0.030084455619389484
7.640000000000001,0.030087196241282966
7.644,0.0300881819035429
7.648000000000001,0.030092701525612848
7.652,0.030089600295575492
7.656000000000001,0.030086595227709834
7.66,0.030085152795134316
7.664000000000001,0.03008416713287438
7.668,0.030089720498290118
7.672000000000001,0.03009686053953892
7.676,0.030090033025348146
7.68,0.03008416713287438
7.684,0.030086835633139086
7.688,0.0300975096341979
7.692,0.030102461986040507
7.696,0.030094769012304422
7.7,0.030088350187343377
7.704,0.0300903695929491
7.708,0.030100899350750363
7.712,0.03010558725662079
7.716,0.030107390297340185
7.72,0.030114770744018242
7.724,0.030109722230003935
7.728,0.03011481882510409
7.732,0.030126454447879918
7.736,0.030125300501819507
7.74,0.03012782475882666
7.744,0.030134748435189145
7.748,0.0301376573408831
7.752,0.030137489057082623
7.756,0.03014085473309216
7.76,0.030151096004378323
7.764,0.030146119611992792
7.768,0.03014696103099518
7.772,0.030154173193872758
7.776,0.0301581158429125
7.78,0.03016607326262076
7.784,0.030164775073302796
7.788,0.03015963039711679
7.792,0.030157178261738415
7.796,0.030157659072596918
7.8,0.030161120910778157
7.804,0.030167780141168454
7.808,0.03017347774984174
7.812,0.03016876580342839
7.816,0.030175857763591343
7.82,0.030174992304046033
7.824,0.030166962762708995
7.828,0.030168453276370362
7.832,0.03017205935780915
7.836,0.03015684169413746
7.84,0.03016607326262076
7.844,0.03017900707471455
7.848,0.03017653089879325
7.852,0.030178862831457
7.856,0.030180834155976874
7.86,0.03018840692699833
7.864,0.030209947253459365
7.868,0.030210067456173995
7.872,0.030214130307928362
7.876,0.030222231970894176
7.88,0.030224563903557926
7.884,0.030235935080361577
7.888,0.03022831422825427
7.892,0.03024526281101658
7.896,0.030238483377911653
7.9,0.030227424728166034
7.904,0.03023408395855633
7.908,0.030236704377735183
7.912,0.03023485325592994
7.916,0.030244565635271746
7.92,0.030251441230548373
7.924,0.03024829191942516
7.928,0.030246897567935496
7.932,0.03024663312196332
7.936,0.03025331639289654
7.94,0.030256658028363154
7.944,0.030243555932468885
7.948,0.03024357997301181
7.952,0.030258989961026904
7.956,0.030260408353059494
7.96,0.030261177650433103
7.964,0.030267716678108774
7.968,0.030267909002452176
7.972,0.030264375042642164
7.976,0.030265312623816248
7.98,0.03027295751646648
7.984,0.030282237166035633
7.988,0.030282068882235155
7.992,0.030267500313222447
7.996,0.030272019935292396
8.0,0.030267909002452176
8.004,0.030265384745445024
8.008000000000001,0.03026257200192277
8.012,0.030255239636330564
8.016,0.03025560024447444
8.02,0.030266947380735165
8.024000000000001,0.030263509583096853
8.028,0.030260143907087315
8.032,0.030268822543083336
8.036,0.03027641935464772
8.040000000000001,0.030274568232842473
8.044,0.030265625150874276
8.048,0.0302744961112137
8.052,0.030277260773650103
8.056000000000001,0.030283511314810673
8.06,0.030280313922601613
8.064,0.030275169246415604
8.068,0.030289425288370288
8.072000000000001,0.030289954180314643
8.076,0.030292165910263767
8.08,0.03029606047821766
8.084,0.03030113303277489
8.088000000000001,0.03029519501867235
8.092,0.03028774245036552
8.096,0.03028336707155312
8.1,0.030284665260871084
8.104000000000001,0.030285939409646124
8.108,0.03028331899046727
8.112,0.03027774158450861
8.116,0.030280097557715286
8.120000000000001,0.030292238031892543
8.124,0.03030077242463101
8.128,0.030295459464644528
8.132,0.030291877423748663
8.136000000000001,0.030283343031010195
8.14,0.030281323625404474
8.144,0.03028538647715884
8.148,0.030291348531804308
8.152000000000001,0.0302905792344307
8.156,0.03029620472147521
8.16,0.030302214857206525
8.164,0.030301205154403665
8.168000000000001,0.030296445126904464
8.172,0.03028016967934406
8.176,0.030282381409293183
8.18,0.030293440059038806
8.184000000000001,0.030290699437145328
8.188,0.030294569964556293
8.192,0.030289425288370288
8.196,0.03029916170825502
8.2,0.030309979952571387
8.204,0.03030396981684007
8.208,0.03028966569379954
8.212,0.030306542154933076
8.216,0.030311782993290782
8.22,0.03030774418207934
8.224,0.030317841210107947
8.228,0.030322481034892525
8.232,0.030325774589273286
8.236,0.030328755616596016
8.24,0.030333034833236714
8.244,0.0303407278069728
8.248,0.030341665388146883
8.252,0.030346689861618262
8.256,0.0303431078207224
8.26,0.030341521144889333
8.264,0.030346160969673908
8.268,0.030348565023966434
8.272,0.03034955068622637
8.276,0.030354286673182646
8.28,0.03036113822791635
8.284,0.030351714335089645
8.288,0.030333635846809846
8.292,0.030340343158285994
8.296,0.030354310713725574
8.3,0.030353974146124618
8.304,0.030354262632639722
8.308,0.030355921430101566
8.312,0.030363181674064994
8.316,0.030378158932307435
8.32,0.030384697959983106
8.324,0.030380082175741455
8.328,0.03038138036505942
8.332,0.030379793689226352
8.336,0.030395203677241446
8.34,0.030397535609905196
8.344,0.03039436225823906
8.348,0.030374192242724765
8.352,0.030373519107522857
8.356,0.030380418743342408
8.36,0.030393160231092797
8.364,0.030389145460424278
8.368,0.030373543148065785
8.372,0.030364239457953707
8.376,0.030366787755503784
8.38,0.03037315849937898
8.384,0.030380659148771662
8.388,0.03038755878459121
8.392,0.03039085233897197
8.396,0.030398761677594383
8.4,0.030402728367177053
8.404,0.030406310408072918
8.408,0.030409676084082453
8.412,0.030407272029789927
8.416,0.03041176761131695
8.42,0.030420614531113447
8.424,0.030426672747930615
8.428,0.0304116233680594
8.432,0.030411334881544298
8.436,0.030422056963688965
8.44,0.03041335428715002
8.444,0.03041085407068579
8.448,0.03042801901833443
8.452,0.0304413134385721
8.456,0.030442563546804215
8.46,0.030435760073156366
8.464,0.030431024086200086
8.468,0.030442852033319315
8.472,0.030456579183329644
8.476,0.030454127047951265
8.48,0.030452540372118198
8.484,0.030451434507143636
8.488,0.03045989677825333
8.492,0.030461940224401976
8.496,0.03044886216905063
8.5,0.03044710720941709
8.504,0.030438404532878143
8.508000000000001,0.03043638512727242
8.512,0.030438404532878143
8.516,0.0304505450070554
8.52,0.030452660574832823
8.524000000000001,0.030458790913278768
8.528,0.030450088236739822
8.532,0.03044013545196876
8.536,0.030449583385338392
8.540000000000001,0.030454583818266847
8.544,0.030457949494276382
8.548,0.03045552139944093
8.552,0.030459752534995777
8.556000000000001,0.030470426536054595
8.56,0.030473768171521205
8.564,0.03047658091504346
8.568,0.030484995105067303
8.572000000000001,0.03048602884841309
8.576,0.030485644199726287
8.58,0.030482254483173824
8.584,0.03050247257977397
8.588000000000001,0.03051622377032722
8.592,0.030523820581891604
8.596,0.030527787271474278
8.6,0.030529181622963943
8.604000000000001,0.030522907041260445
8.608,0.030525166852295418
8.612,0.030528195960704007
8.616,0.030542596245916237
8.620000000000001,0.03055851108533276
8.624,0.030560794936910662
8.628,0.03057106024873975
8.632,0.030587576101729408
8.636000000000001,0.03058973975059268
8.64,0.030590388845251663
8.644,0.030598586670389175
8.648,0.03060166385988361
8.652000000000001,0.030599307886676936
8.656,0.03059745676487169
8.66,0.030595966251210322
8.664,0.03059731252161414
8.668000000000001,0.03061065502293766
8.672,0.030617073847898704
8.676,0.030607433590185674
8.68,0.030596158575553725
8.684000000000001,0.03059659130532638
8.688,0.030593321791488545
8.692,0.030598706873103804
8.696,0.030626065010952754
8.700000000000001,0.030624189848604582
8.704,0.03060471700883512
8.708,0.03060293800865865
8.712,0.030610462698594257
8.716,0.03062099245639552
8.72,0.030624622578377236
8.724,0.030624550456748462
8.728,0.030628805632846232
8.732,0.030643109755886765
8.736,0.030645946539951945
8.74,0.030657534081641923
8.744,0.030656115689609333
8.748,0.03063633032278184
8.752,0.03061873264536055
8.756,0.030609861685021125
8.76,0.030617771023643537
8.764,0.03061385241514672
8.768,0.030589258939734174
8.772,0.030590629250680915
8.776,0.030593105426602218
8.78,0.0305846191149496
8.784,0.03059178319674133
8.788,0.030587792466615735
8.792,0.030582359303914623
8.796,0.03057375278954738
8.8,0.03057923403333434
8.804,0.03059293714280174
8.808,0.030599452129934486
8.812,0.03057983504690747
8.816,0.030575748154610175
8.82,0.030577575235872498
8.824,0.030561996964056926
8.828,0.030567574370015588
8.832,0.030579161911705566
8.836,0.03057572411406725
8.84,0.030568055180874094
8.844,0.030569257208020357
8.848,0.03057622896546868
8.852,0.0305868068043558
8.856,0.03057654149252671
8.86,0.030579041708990937
8.864,0.030573608546289828
8.868,0.030568487910646747
8.872,0.030573824911176155
8.876,0.030583561331060886
8.88,0.030588249236931313
8.884,0.03057817624944563
8.888,0.03057404127606248
8.892,0.030566204059068847
8.896,0.03057507501940827
8.9,0.030581325560568837
8.904,0.030587720344986958
8.908,0.03059421129157678
8.912,0.030587744385529882
8.916,0.030576277046554533
8.92,0.030579258073877263
8.924,0.030583753655404288
8.928,0.030578608979218283
8.932,0.03058178233088442
8.936,0.030592985223887592
8.94,0.030603611143860558
8.944,0.030607505711814448
8.948,0.030600077184050542
8.952,0.03058959550733513
8.956,0.030604067914176136
8.96,0.030603635184403483
8.964,0.030605822873809682
8.968,0.030615150604464684
8.972,0.030629238362618886
8.976,0.030647148567098208
8.98,0.030640008525849406
8.984,0.03063308484948693
8.988,0.030648470796959097
8.992,0.030656957108611715
8.996,0.03066657332578182
9.0,0.030665443420264334
9.004,0.03065455305431919
9.008000000000001,0.03066205370371187
9.012,0.030666621406867673
9.016,0.0306690254611602
9.02,0.030672078610111706
9.024000000000001,0.030670732339707893
9.028,0.03067758389444159
9.032,0.030671886285768304
9.036,0.030654793459748444
9.040000000000001,0.03065871206824526
9.044,0.03066145269013874
9.048,0.0306645539201761
9.052,0.030668087879986112
9.056000000000001,0.030676766515982133
9.06,0.030683666151801684
9.064,0.030690710030878785
9.068,0.03069246499051233
9.072000000000001,0.030697417342354934
9.076,0.030712178235711044
9.08,0.03071753927678338
9.084,0.030709798221961446
9.088000000000001,0.030710110749019474
9.092,0.030722780115141086
9.096,0.03074013738713313
9.1,0.030749657442131532
9.104000000000001,0.030746243685036142
9.108,0.030751412401765075
9.112,0.030762783578568726
9.116,0.03075900921332946
9.120000000000001,0.030751460482850927
9.124,0.030754609793974135
9.128,0.030753768374971752
9.132,0.030759922753960618
9.136000000000001,0.030760066997218168
9.14,0.03075417706420148
9.144,0.030775981836634693
9.148,0.030780741864133897
9.152000000000001,0.030784011377971734
9.156,0.030784852796974117
9.16,0.030782737229196694
9.164,0.03079362759514184
9.168000000000001,0.03080401310968555
9.172,0.030815672773004305
9.176,0.030838751694212557
9.18,0.03084420889745659
9.184000000000001,0.030836011072319078
9.188,0.03084178080262114
9.192,0.030823125341311135
9.196,0.03079336314916966
9.200000000000001,0.030776943458351705
9.204,0.030761461348707834
9.208,0.030769563011673648
9.212,0.030763336511056005
9.216000000000001,0.030763144186712603
9.22,0.030765932889691934
9.224,0.030762182564995594
9.228,0.030769274525158544
9.232,0.030769322606244397
9.236,0.030763096105626754
9.24,0.030764562578745193
9.244,0.030766437741093364
9.248,0.0307697072549312
9.252,0.030767207038466974
9.256,0.030776486688036123
9.26,0.030773529701256318
9.264,0.030757542740211016
9.268,0.03074691682023805
9.272,0.030754297266916107
9.276,0.030766269457292886
9.28,0.030762014281195117
9.284,0.03076559632209098
9.288,0.03077239979573883
9.292,0.030776606890750752
9.296,0.03076280761911165
9.3,0.03077148625510767
9.304,0.03078773766212515
9.308,0.03079107929759176
9.312,0.030791608189536114
9.316,0.030788555040584607
9.32,0.030800695514761865
9.324,0.030811658002335787
9.328,0.03081326871871178
9.332,0.03080949435347251
9.336,0.03081067234007585
9.34,0.03081620166494866
9.344,0.03083699673457901
9.348,0.030847839019438307
9.352,0.03084329535682543
9.356,0.030851805709020973
9.36,0.030859763128729237
9.364,0.030850531560245937
9.368,0.030865364575230824
9.372,0.030881952549849254
9.376,0.030893371807738754
9.38,0.030892314023850044
9.384,0.03089248230765052
9.388,0.0309042621736839
9.392,0.030905055511600433
9.396,0.030914190917912032
9.4,0.030919840445499475
9.404,0.03092736513543508
9.408,0.030937991055408048
9.412,0.030949891124156054
9.416,0.030956983084319007
9.42,0.030967945571892926
9.424,0.030976239559202142
9.428,0.030977129059290377
9.432,0.03096599828791598
9.436,0.030955468530114712
9.44,0.03095042001610041
9.444,0.030958112989836493
9.448,0.030962752814621068
9.452,0.030952415381163206
9.456,0.030959363098068605
9.46,0.030977177140376226
9.464,0.030971215085730763
9.468,0.03096849850438021
9.472,0.03096837830166558
9.476,0.03096965245044062
9.48,0.03098426910053918
9.484,0.030988187709035997
9.488,0.030995640277342827
9.492,0.030997852007291955
9.496,0.031007444183919132
9.5,0.031007396102833283
9.504,0.03100629023785872
9.508000000000001,0.031002035061760948
9.512,0.031000496467013732
9.516,0.03100518437288416
9.52,0.031000424345384955
9.524000000000001,0.030992971777078125
9.528,0.031004607399853952
9.532,0.030999582926382573
9.536,0.031012757143905615
9.540000000000001,0.031024753374825322
9.544,0.031001866777960473
9.548,0.03100734802174743
9.552,0.031009968440926287
9.556000000000001,0.031013382198021675
9.56,0.03101970486081102
9.564,0.031026868942602745
9.568,0.03103542737588414
9.572000000000001,0.031042928025276823
9.576,0.031049899782725147
9.58,0.031053313539820535
9.584,0.03105557335085551
9.588000000000001,0.031059155391751376
9.592,0.03106896393326488
9.596,0.03106877160892148
9.6,0.031069156257608282
9.604000000000001,0.031070478487469175
9.608,0.031063098040791118
9.612,0.0310613671217005
9.616,0.031085648070055014
9.620000000000001,0.031095384489939745
9.624,0.03109411034116471
9.628,0.031103125544761683
9.632,0.03111033770763926
9.636000000000001,0.031116996938029558
9.64,0.031119953924809367
9.644,0.03109502388179587
9.648,0.031099519463322893
9.652000000000001,0.031129089331120966
9.656,0.031130555804239405
9.66,0.031127767101260077
9.664,0.031138080494175012
9.668000000000001,0.031140628791725092
9.672,0.031146687008542256
9.676,0.031148538130347504
9.68,0.031154476144450043
9.684000000000001,0.031171256443411878
9.688,0.031177098295342716
9.692,0.031168059051202818
9.696,0.03117022270006609
9.700000000000001,0.03117368453824733
9.704,0.031183805606818864
9.708,0.031183565201389613
9.712,0.031184983593422203
9.716000000000001,0.031195873959367345
9.72,0.03120484108187847
9.724,0.031202725514101047
9.728,0.031215707407280687
9.732,0.031230059611407072
9.736,0.03122895374643251
9.74,0.031222991691787043
9.744,0.031233232963073204
9.748,0.031239267139347448
9.752,0.03123558893627988
9.756,0.031233858017189264
9.76,0.031243041504586712
9.764,0.03125239327578464
9.768,0.031242873220786237
9.772,0.031251455694610554
9.776,0.03126431738507557
9.78,0.03127441441310418
9.784,0.03128847813071546
9.788,0.031289391671346624
9.792,0.031286386603480966
9.796,0.031309513605775066
9.8,0.03130910491654534
9.804,0.03131434575490305
9.808,0.031324322580217036
9.812,0.03130994633554772
9.816,0.031302830334841845
9.82,0.031302806294298914
9.824,0.03130689318659621
9.828,0.031294199779931677
9.832,0.03126705800696905
9.836,0.031278333021601
9.84,0.03129340644201514
9.844,0.03129025713089193
9.848,0.03129782990191339
9.852,0.031308912592201935
9.856,0.0313082154164571
9.86,0.0313098261328331
9.864,0.0313369438652528
9.868,0.031351175866664555
9.872,0.03136528766536169
9.876,0.03137225942281001
9.88,0.031372547909325116
9.884,0.03137754834225357
9.888,0.031387933856797286
9.892,0.03139819916862637
9.896,0.031406084466705855
9.9,0.031409738629230494
9.904,0.031413969764785346
9.908,0.03142769691479567
9.912,0.03143683232110727
9.916,0.031448636227683575
9.92,0.031441400024263065
9.924,0.03143676019947849
9.928,0.03145029502514542
9.932,0.03146029589100233
9.936,0.031471042013689915
9.94,0.0314763549736764
9.944,0.03147871094688308
9.948,0.031469695743286105
9.952,0.031466017540218535
9.956,0.03147452789241408
9.96,0.0314672195673648
9.964,0.03145688213390694
9.968,0.03146120943163348
9.972,0.03145041522786004
9.976,0.03146733977007943
9.98,0.031476739622363206
9.984,0.031472051716492776
9.988,0.031470873729889444
9.992,0.03146907068917005
9.996,0.03147161898672012
10.0,0.03146688299976385
10.004,0.03147621073041885
10.008000000000001,0.031494313259241576
10.012,0.031505660395502295
10.016,0.031517800869679556
10.02,0.03153823533116603
10.024000000000001,0.03155703503573359
10.028,0.03155467906252691
10.032,0.031553645319181124
10.036,0.031548668926795594
10.040000000000001,0.03155588108967317
10.044,0.031568502374708936
10.048,0.03158225356526219
10.052,0.03159751931001973
10.056000000000001,0.031618434582364706
10.06,0.0316313683944585
10.064,0.03164201835497439
10.068,0.031652764477661986
10.072000000000001,0.03165750046461826
10.076,0.031648437179935436
10.08,0.03166406353283686
10.084,0.031663823127407606
10.088000000000001,0.03166069785682732
10.092,0.03166327019492032
10.096,0.03166538576269775
10.1,0.03166882356033606
10.104000000000001,0.03168276707523271
10.108,0.03169803281999025
10.112,0.03170839429399105
10.116,0.03171325048366195
10.120000000000001,0.0317201501194815
10.124,0.03171942890319374
10.128,0.03171690464618659
10.132,0.031701735063600744
10.136000000000001,0.03167791088556181
10.14,0.03166661183038694
10.144,0.03166507323563972
10.148,0.03164406180112304
10.152000000000001,0.03162942111048155
10.156,0.03163333971897837
10.16,0.03163182516477408
10.164,0.031637835300505394
10.168000000000001,0.03164805253124863
10.172,0.03166579445192748
10.176,0.03168377677803557
10.18,0.0316933208735769
10.184000000000001,0.03169981182016672
10.188,0.03170800964530424
10.192,0.03170846641561982
10.196,0.031711759970000586
10.200000000000001,0.031727602687788334
10.204,0.031732218472029984
10.208,0.0317407047836826
10.212,0.03173986336468022
10.216000000000001,0.03171546221361107
10.22,0.031705990239698514
10.224,0.03173007886370963
10.228,0.03173135301248467
10.232000000000001,0.03173053563402521
10.236,0.03170810580747594
10.24,0.03170459588820885
10.244,0.031711038753712825
10.248,0.03171413998375018
10.252,0.03171827495713333
10.256,0.031715005443295495
10.26,0.03170113405002761
10.264,0.03169673463067229
10.268,0.03170365830703477
10.272,0.031718058592247
10.276,0.0317291893636214
10.28,0.031736834256271634
10.284,0.031746354311270035
10.288,0.03175835054218974
10.292,0.03176763019175889
10.296,0.03178193431479943
10.3,0.03179241599151484
10.304,0.03180597485772469
10.308,0.03182374081894646
10.312,0.03184160294233993
10.316,0.03183047217096553
10.32,0.03181679310204106
10.324,0.031813403385488596
10.328,0.031822082021484614
10.332,0.03181330722331689
10.336,0.03183059237368016
10.34,0.031833909968603843
10.344,0.031834583103805755
10.348,0.031830255806079205
10.352,0.03182638527866824
10.356,0.03183088086019526
10.36,0.03182991923847825
10.364,0.031837660293300186
10.368,0.03184028071247904
10.372,0.03182794791395838
10.376,0.031815879561409896
10.38,0.03182289939994407
10.384,0.0318274911436428
10.388,0.031828068116673006
10.392,0.03182364465677476
10.396,0.03183124146833914
10.4,0.03183773241492896
10.404,0.03184369446957443
10.408,0.031849848848563296
10.412,0.03183720352298461
10.416,0.031843982956089534
10.42,0.03184886318630336
10.424,0.03184405507771831
10.428,0.03183931909076203
10.432,0.03183792473927236
10.436,0.03183612169855297
10.44,0.03183088086019526
10.444,0.03182318788645918
10.448,0.03184797368621513
10.452,0.03185720525469843
10.456,0.03184064132062292
10.46,0.03182761134635743
10.464,0.031828140238301786
10.468,0.03184530518595042
10.472,0.031867879255757244
10.476,0.03188879452810222
10.48,0.031897232758668986
10.484,0.03191449386848933
10.488,0.03192086461236452
10.492,0.031918123990471045
10.496,0.031947333250125234
10.5,0.031967935995412186
10.504,0.03198199971302347
10.508000000000001,0.03197719160443842
10.512,0.03198248052388197
10.516,0.03199228906539548
10.52,0.031987577118982126
10.524000000000001,0.03198315365908388
10.528,0.031989356119158596
10.532,0.03199289007896861
10.536,0.03198813005146941
10.540000000000001,0.03195057872342015
10.544,0.03191966258521826
10.548,0.031901247529337505
10.552,0.03186259033631368
10.556000000000001,0.031839198888047406
10.56,0.031836818874297804
10.564,0.031833741684803366
10.568,0.03183330895503071
10.572000000000001,0.031838237266330394
10.576,0.03184237223971354
10.58,0.031843910834460754
10.584,0.03186814370172942
10.588000000000001,0.03189175151488203
10.592,0.03189696831269681
10.596,0.031891318785109375
10.6,0.03188944362276121
10.604000000000001,0.0318890589740744
10.608,0.031900189745448795
10.612,0.03190158409693846
10.616,0.031902257232140366
10.620000000000001,0.031877471432384424
10.624,0.03186903320181766
10.628,0.031885164406120506
10.632,0.03189680002889633
10.636000000000001,0.03190571907032161
10.64,0.0319146621522898
10.644,0.03191872500404418
10.648,0.031930841437678506
10.652000000000001,0.03193783723566976
10.656,0.03193093759985021
10.66,0.03193079335659266
10.664,0.031927043031896314
10.668000000000001,0.031929879815961494
10.672,0.03193504853269043
10.676,0.03193158669450919
10.68,0.031935096613776276
10.684000000000001,0.031929471126731765
10.688,0.03192822101849965
10.692,0.03193427923531682
10.696,0.03195223752088199
10.700000000000001,0.031955266629290574
10.704,0.03197005156318961
10.708,0.03197476350960296
10.712,0.03196767154944001
10.716000000000001,0.03198849065961329
10.72,0.03200796349938275
10.724,0.03202895089335651
10.728,0.03203327819108305
10.732000000000001,0.0320303692853891
10.736,0.03204214915142248
10.74,0.03205604458523328
10.744,0.03205808803138192
10.748000000000001,0.03204933727375713
10.752,0.03205099607121897
10.756,0.0320490247466991
10.76,0.03205176536859258
10.764,0.03206049208567445
10.768,0.0320653001942595
10.772,0.032073305695053615
10.776,0.03207287296528096
10.78,0.03207955623621418
10.784,0.032100880197788895
10.788,0.03210975115812832
10.792,0.03211879040226822
10.796,0.03212436780822688
10.8,0.03212963268712751
10.804,0.0321335272550814
10.808,0.032145980256316695
10.812,0.032129127835726086
10.816,0.03212583428134532
10.82,0.032139056579954216
10.824,0.03214891320255357
10.828,0.032158865987324634
10.832,0.032169708272183926
10.836,0.03218434896282541
10.84,0.032195191247684704
10.844,0.03219216213927612
10.848,0.032207740411091694
10.852,0.03220639414068788
10.856,0.03221036083027055
10.86,0.03222497748036911
10.864,0.032234425413738735
10.868,0.03223399268396608
10.872,0.03223255025139057
10.876,0.03223257429193349
10.88,0.032224424547881825
10.884,0.032229400940267355
10.888,0.03223755068431902
10.892,0.032234545616453364
10.896,0.0322404836305559
10.9,0.03224387334710836
10.904,0.032252600064190236
10.908,0.03226786580894778
10.912,0.03226089405149945
10.916,0.03225185480735955
10.92,0.032251470158672746
10.924,0.03225214329387466
10.928,0.03225538876716957
10.932,0.03225103742890009
10.936,0.032238440184407254
10.94,0.03224918630709485
10.944,0.03225776878091917
10.948,0.032251229753243495
10.952,0.03226115849747163
10.956,0.03226875530903601
10.96,0.032261879713759385
10.964,0.032261519105615505
10.968,0.03225065278021329
10.972,0.03224995560446846
10.976,0.03226024495684047
10.98,0.03225733605114651
10.984,0.03225594169965685
10.988,0.032265077105968445
10.992,0.032265557916826955
10.996,0.032276856972001826
11.0,0.032277986877519316
11.004,0.03227387594467909
11.008000000000001,0.03227983799932456
11.012,0.03228202568873076
11.016,0.03227964567498116
11.02,0.03229423828453679
11.024000000000001,0.03229563263602646
11.028,0.032267793687319
11.032,0.03227502989073951
11.036,0.03228267478338974
11.040000000000001,0.03228426145922281
11.044,0.03229104089232773
11.048,0.032286954000030434
11.052,0.03227637616114332
11.056000000000001,0.03228760309468942
11.06,0.03230676340740085
11.064,0.032318735597777634
11.068,0.032313590921591626
11.072000000000001,0.03230274863673233
11.076,0.032312941826932645
11.08,0.03230923958332216
11.084,0.03230883089409243
11.088000000000001,0.032309095340064604
11.092,0.03230339773139131
11.096,0.032302652474560635
11.1,0.03231104262404155
11.104000000000001,0.03231491315145252
11.108,0.03231681235434361
11.112,0.032317269124659195
11.116,0.03232238976030227
11.120000000000001,0.03230474400179513
11.124,0.032301210041985114
11.128,0.03230479208288098
11.132,0.03229712314968782
11.136000000000001,0.032286617432429485
11.14,0.032283876810536
11.144,0.03229565667656938
11.148,0.03229144958155746
11.152000000000001,0.03229712314968782
11.156,0.03230072923112661
11.16,0.03230895109680705
11.164,0.032313590921591626
11.168000000000001,0.032328856666349166
11.172,0.03232921727449305
11.176,0.03232621220662739
11.18,0.03232445724699385
11.184000000000001,0.032320153989810224
11.188,0.032328087368975564
11.192,0.03233888157274901
11.196,0.032345420600424675
11.200000000000001,0.03234989214140877
11.204,0.032352632763302254
11.208,0.03236446071042148
11.212,0.03237710603600017
11.216000000000001,0.032380087063322904
11.22,0.03238686649642783
11.224,0.03239508836210827
11.228,0.032409680971663905
11.232000000000001,0.03242631702736819
11.236,0.03243088473052399
11.24,0.03243208675767025
11.244,0.032442279947870564
11.248000000000001,0.032445717745508876
11.252,0.03244913150260426
11.256,0.032458964084660695
11.26,0.032455886895166264
11.264,0.032454636786934145
11.268,0.032450982624409506
11.272,0.03243564475802319
11.276,0.03243816901503034
11.28,0.03244982867834909
11.284,0.032444659961620166
11.288,0.032449251705318885
11.292,0.03244249631275689
11.296,0.032431389581925416
11.3,0.032431509784640045
11.304,0.03243425040653353
11.308,0.03243230312255658
11.312,0.03243059624400888
11.316,0.032422278216156744
11.32,0.03241987416186422
11.324,0.032423816810903956
11.328,0.03242638914899696
11.332,0.03243554859585149
11.336,0.03244990079997787
11.34,0.03245583881408041
11.344,0.03245869963868852
11.348,0.03246288269315751
11.352,0.03246189703089758
11.356,0.03245619942222429
11.36,0.032456896597969125
11.364,0.03247163345078231
11.368,0.03248524039807801
11.372,0.032501275440209164
11.376,0.03251322359004302
11.38,0.032524714969561296
11.384,0.03253274451089833
11.388,0.03254175971449531
11.392,0.03255277028315508
11.396,0.032559141027030274
11.4,0.03256310771661294
11.404,0.032567194608910235
11.408,0.03257065644709148
11.412,0.032584119151129624
11.416,0.0326072221128808
11.42,0.032602582288096225
11.424,0.03259291798984027
11.428,0.032608327977855366
11.432,0.03262070885746187
11.436,0.032622511898181265
11.44,0.03261984339791656
11.444,0.03262316099284025
11.448,0.032625492925504
11.452,0.03262970002051592
11.456,0.0326413837243776
11.46,0.032645013846359316
11.464,0.032639027751170925
11.468,0.03264010957560256
11.472,0.03265225004977982
11.476,0.03265595229339031
11.48,0.03264491768418761
11.484,0.03263248872349525
11.488,0.03264087887297617
11.492,0.032639797048544535
11.496,0.032633402264126414
11.5,0.03263821037271147
11.504,0.03264460515712959
11.508000000000001,0.03263147902069239
11.512,0.03264662456273531
11.516,0.03265948625320032
11.52,0.032663164456267886
11.524000000000001,0.03266722730802226
11.528,0.03267732433605087
11.532,0.03267888697134101
11.536,0.032682973863638304
11.540000000000001,0.032680738093146255
11.544,0.03267886293079809
11.548,0.032690859161717795
11.552,0.03269295068895229
11.556000000000001,0.032687902174937986
11.56,0.032689368648056424
11.564,0.032692277553750385
11.568,0.03269343149981079
11.572000000000001,0.03270391317652621
11.576,0.032709971393343376
11.58,0.03272100600254607
11.584,0.03272667957067643
11.588000000000001,0.032729324030398216
11.592,0.032742329964120784
11.596,0.03273879600431077
11.6,0.032742209761406155
11.604000000000001,0.032744998464385486
11.608,0.03273141555763271
11.612,0.03272905958442603
11.616,0.032735646693187556
11.620000000000001,0.03272473228669949
11.624,0.03271030796094433
11.628,0.032698720419254354
11.632,0.03269864829762558
11.636000000000001,0.032696532729848155
11.64,0.03269232563483623
11.644,0.032693215134924465
11.648,0.03268621933693321
11.652000000000001,0.032668357213539743
11.656,0.03264744194119477
11.66,0.032647129414136736
11.664,0.03265112014426233
11.668000000000001,0.032654774306786975
11.672,0.03266554447001749
11.676,0.032653932887784586
11.68,0.03264321080563992
11.684000000000001,0.032659317969399845
11.688,0.03266415011852782
11.692,0.03265958241537203
11.696,0.03264679284653579
11.700000000000001,0.03261602095159145
11.704,0.032609145356314824
11.708,0.03261674216787921
11.712,0.03261265527558191
11.716000000000001,0.03260813565351196
11.72,0.03260604412627746
11.724,0.03259722124702389
11.728,0.032601861071808465
11.732000000000001,0.032599024287743285
11.736,0.03259900024720036
11.74,0.032590465854461896
11.744,0.032579335083087496
11.748000000000001,0.03257303646084108
11.752,0.03256870916311453
11.756,0.03256060750014871
11.76,0.03256515116276159
11.764000000000001,0.03256587237904935
11.768,0.032552241391210726
11.772,0.03255048643157718
11.776,0.032563756811271924
11.78,0.03256510308167574
11.784,0.03258246035366778
11.788,0.03260212551778065
11.792,0.03261770378959621
11.796,0.03261715085710894
11.8,0.03260159662583629
11.804,0.032619026019457105
11.808,0.03262296866849685
11.812,0.03262407453347141
11.816,0.03262621414179176
11.82,0.032628978804228166
11.824,0.03262921920965742
11.828,0.03262780081762483
11.832,0.03262681515536489
11.836,0.032617727830139144
11.84,0.032608977072514346
11.844,0.03260409684230052
11.848,0.03260029843651833
11.852,0.03259053797609067
11.856,0.03257238736618209
11.86,0.03256923805505889
11.864,0.03258532117827589
11.868,0.032572988379755224
11.872,0.03254740924208275
11.876,0.03255962183788878
11.88,0.032559814162232185
11.884,0.0325588765810581
11.888,0.03256315579769879
11.892,0.032563348122042195
11.896,0.03256928613614474
11.9,0.03257144978500801
11.904,0.032566954203480984
11.908,0.032586306840535824
11.912,0.032592701624953944
11.916,0.03259883196339988
11.92,0.032608207775140736
11.924,0.032610924356491294
11.928,0.03261291972155409
11.932,0.032620396330403846
11.936,0.03261549205964709
11.94,0.032608496261655844
11.944,0.032627368087852174
11.948,0.03265164903620669
11.952,0.03266350102386884
11.956,0.03265350015801193
11.96,0.03264325888672577
11.964,0.03263458025072975
11.968,0.032609409802287
11.972,0.03260224572049527
11.976,0.032604890180217054
11.98,0.03258782139474011
11.984,0.032585826029677314
11.988,0.03258378258352867
11.992,0.03259652407127906
11.996,0.03261037142400401
12.0,0.03262332927664073
12.004,0.032635541872446765
12.008000000000001,0.032635109142674104
12.012,0.0326434752516121
12.016,0.03264022977831719
12.02,0.032647970833139126
12.024000000000001,0.03264818719802545
12.028,0.03265297126606758
12.032,0.03266448668612878
12.036,0.032683983566441165
12.040000000000001,0.03269090724280364
12.044,0.03269367190524005
12.048,0.032705884501046084
12.052,0.03271350535315339
12.056000000000001,0.03271506798844353
12.06,0.03270302367643797
12.064,0.03269905698685531
12.068,0.0326937199863259
12.072000000000001,0.03267806959288155
12.076,0.032676891606278215
12.08,0.03267816575505325
12.084,0.032675761700760725
12.088000000000001,0.03266229899672258
12.092,0.0326504229685175
12.096,0.032643282927268695
12.1,0.0326295798178013
12.104000000000001,0.032612222545809255
12.108,0.03260592392356284
12.112,0.03261373710001355
12.116,0.03260856838328462
12.120000000000001,0.0326049382613029
12.124,0.03260616432899209
12.128,0.0325977982200541
12.132,0.03260231784212405
12.136000000000001,0.032614362154129606
12.14,0.032618376924798125
12.144,0.03262135795212086
12.148,0.03262792102033945
12.152000000000001,0.032641576048721005
12.156,0.032651168225348186
12.16,0.03264821123856838
12.164,0.032652562576837844
12.168000000000001,0.03265265873900955
12.172,0.03264172029197855
12.176,0.03264996619820192
12.18,0.03265453390135772
12.184000000000001,0.03265600037447616
12.188,0.03265809190171066
12.192,0.03266311637518204
12.196,0.03266929479471383
12.200000000000001,0.03267047278131717
12.204,0.03267018429480206
12.208,0.032672924916695545
12.212,0.03267657907922018
12.216000000000001,0.03267638675487678
12.22,0.03268335851232511
12.224,0.03268585872878934
12.228,0.03267431926818521
12.232000000000001,0.03269107552660412
12.236,0.03270602874430363
12.24,0.032702614987208244
12.244,0.03270934633922732
12.248000000000001,0.03272843453030998
12.252,0.03273982974765655
12.256,0.03274660918076148
12.26,0.03275336457332348
12.264000000000001,0.03275562438435845
12.268,0.032747114032162905
12.272,0.03274319542366609
12.276,0.032745527356329844
12.280000000000001,0.03273631982838947
12.284,0.03273595922024559
12.288,0.03274761888356434
12.292,0.03275867753330996
12.296,0.03276194704714779
12.3,0.03276048057402935
12.304,0.03276329331755161
12.308,0.03275992764154207
12.312,0.03276644262867482
12.316,0.03276713980441965
12.32,0.03276613010161679
12.324,0.03278028998139977
12.328,0.03277882350828133
12.332,0.032777477237877516
12.336,0.03279009852291328
12.34,0.03278896861739579
12.344,0.03278495384672727
12.348,0.032802503443062715
12.352,0.03280466709192599
12.356,0.032823154269435516
12.36,0.032832025229774936
12.364,0.0328376987979053
12.368,0.03283450140569624
12.372,0.032820365566456185
12.376,0.032815581498414056
12.38,0.032829188445709756
12.384,0.03283406867592358
12.388,0.03284188185237429
12.392,0.032839598000796395
12.396,0.032837049703246315
12.4,0.032843324284949814
12.404,0.03284447823101022
12.408,0.03283690545998877
12.412,0.032838059406049176
12.416,0.03284529560946969
12.42,0.03284354064983614
12.424,0.03285080089379957
12.428,0.0328515942317161
12.432,0.032842194379432324
12.436,0.032836520811301964
12.44,0.032822144566632655
12.444,0.032810436822228055
12.448,0.03281252834946255
12.452,0.03278827144165096
12.456,0.032771851750833005
12.46,0.03277798208927895
12.464,0.032773678832095324
12.468,0.03276317311483699
12.472,0.03275377326255321
12.476,0.03274721019433461
12.48,0.0327511047622885
12.484,0.03275850924950948
12.488,0.032752210627263065
12.492,0.03276740425039183
12.496,0.0327828863600357
12.5,0.03280122929428768
12.504,0.03281240814674792
12.508000000000001,0.032829837540368736
12.512,0.03285875831350783
12.516,0.03287262970677571
12.52,0.03288277481589017
12.524000000000001,0.03289224678980273
12.528,0.03289340073586314
12.532,0.03289263143848953
12.536,0.03290619030469938
12.540000000000001,0.03290270442597522
12.544,0.03289813672281942
12.548,0.032895059533324986
12.552,0.032891429411343265
12.556000000000001,0.03289638176318587
12.56,0.0329152535893822
12.564,0.03293176944237186
12.568,0.03294364547057694
12.572000000000001,0.03293951049719379
12.576,0.03293701028072957
12.58,0.032928187401475996
12.584,0.03291099841328443
12.588000000000001,0.03290318523683372
12.592,0.032886332816243105
12.596,0.032873855774464895
12.6,0.032868831300993516
12.604000000000001,0.032874384666409254
12.608,0.03286125852997206
12.612,0.032852435650718485
12.616,0.03285459929958176
12.620000000000001,0.032861426813772535
12.624,0.032863085611234376
12.628,0.03286974484162468
12.632,0.03288957828953802
12.636000000000001,0.03290412281800781
12.64,0.03292022998176773
12.644,0.032935351483267726
12.648,0.03295282895797439
12.652000000000001,0.03295282895797439
12.656,0.03296194032374306
12.66,0.03296542620246723
12.664,0.03297307109511746
12.668000000000001,0.03297009006779473
12.672,0.032990764934710454
12.676,0.03300050135459519
12.68,0.032997472246186606
12.684000000000001,0.032991894840227944
12.688,0.032999996503193754
12.692,0.03299607789469694
12.696,0.032997111638042725
12.700000000000001,0.03299384212420489
12.704,0.03299352959714686
12.708,0.03299771265161586
12.712,0.0329994676112494
12.716000000000001,0.03299607789469694
12.72,0.032989659069735895
12.724,0.03299045240765243
12.728,0.03298922633996324
12.732000000000001,0.03299530859732333
12.736,0.03299872235441872
12.74,0.03300499693612221
12.744,0.033016440234554634
12.748000000000001,0.03301884428884716
12.752,0.03301256970714367
12.756,0.03300009266536546
12.76,0.03299381808366197
12.764000000000001,0.033000309030251786
12.768,0.033005573909152416
12.772,0.0330041314765769
12.776,0.03300081388165321
12.780000000000001,0.032990837056339234
12.784,0.03298860128584718
12.788,0.032976436771127
12.792,0.032971796946342426
12.796000000000001,0.03297023431105228
12.8,0.03296984966236548
12.804,0.03297345574380427
12.808,0.032974032716834474
12.812,0.032971845027428275
12.816,0.03297795132533129
12.82,0.03297694162252843
12.824,0.032973383622175494
12.828,0.032973912514119845
12.832,0.03297518666289489
12.836,0.03297174886525657
12.84,0.03296725328372955
12.844,0.03296489731052287
12.848,0.03296412801314926
12.852,0.032959536269450536
12.856,0.03293958261882257
12.86,0.032938236348418755
12.864,0.03295201157951493
12.868,0.0329516028902852
12.872,0.03295931990456421
12.876,0.03296703691884322
12.88,0.032964152053692186
12.884,0.03295287703906024
12.888,0.03294061636216836
12.892,0.032926769009443406
12.896,0.032936817956386165
12.9,0.032943621430034015
12.904,0.03294316465971844
12.908,0.032933981172320985
12.912,0.032924990009266936
12.916,0.03290852223736313
12.92,0.032894987411696205
12.924,0.03289311224934804
12.928,0.032898232884991115
12.932,0.032904988277553116
12.936,0.03289549226309764
12.94,0.03288693382981624
12.944,0.03288226996448874
12.948,0.03288520291072562
12.952,0.03288916960030829
12.956,0.03289066011396966
12.96,0.032886813627101615
12.964,0.03288916960030829
12.968,0.03289662216861512
12.972,0.032901911088058684
12.976,0.03290787314270415
12.98,0.03290561333166917
12.984,0.032903161196290796
12.988,0.03290222361511671
12.992,0.03289337669532021
12.996,0.032890419708540404
13.0,0.032892439114146126
13.004,0.032886404937871885
13.008000000000001,0.03288941000573754
13.012,0.032894386398123074
13.016,0.03289258335740368
13.02,0.03289234295197443
13.024000000000001,0.03289272760066123
13.028,0.03289508357386791
13.032,0.03289727126327411
13.036,0.03289751166870336
13.040000000000001,0.03290431514235121
13.044,0.03290787314270415
13.048,0.032906406669585705
13.052,0.03291845098159126
13.056000000000001,0.032924340914607955
13.06,0.032925158293067414
13.064,0.03293833251059046
13.068,0.032940015348595225
13.072000000000001,0.03294140970008489
13.076,0.032942611727231154
13.08,0.032938284429504604
13.084,0.03294624184921287
13.088000000000001,0.032939654740451345
13.092,0.03293347632091955
13.096,0.03293020680708172
13.1,0.03294879014676295
13.104000000000001,0.032951434606484725
13.108,0.03295109803888377
13.112,0.03294525618695293
13.116,0.0329334282398337
13.120000000000001,0.03294590528161191
13.124,0.03295984879650857
13.128,0.03296218072917232
13.132,0.03296771005404513
13.136000000000001,0.032974922216922706
13.14,0.032968888040648466
13.144,0.03296662822961349
13.148,0.03296912844607772
13.152000000000001,0.032965738729525254
13.156,0.03296069021551095
13.16,0.0329560744312693
13.164,0.03296013728302367
13.168000000000001,0.03296766197295928
13.172,0.032966459945813015
13.176,0.0329718690679712
13.18,0.03297614828461189
13.184000000000001,0.032993313232260534
13.188,0.03301531032903715
13.192,0.033016344072382936
13.196,0.033016151748039534
13.200000000000001,0.03301968570784955
13.204,0.03301444486949184
13.208,0.033001414895226344
13.212,0.03301684892378436
13.216000000000001,0.03302300330277323
13.22,0.03302346007308881
13.224,0.03303033566836544
13.228,0.03304021633150772
13.232000000000001,0.033046803440269244
13.236,0.03304865456207449
13.24,0.03305026527845048
13.244,0.03304572161583761
13.248000000000001,0.03304992871084953
13.252,0.03305406368423267
13.256,0.033057525522413915
13.26,0.03305937664421916
13.264000000000001,0.03306430495551883
13.268,0.03306904094247511
13.272,0.0330751231998352
13.276,0.033081061213937744
13.280000000000001,0.03307856099747352
13.284,0.033065795469180204
13.288,0.03307368076725969
13.292,0.03306880053704586
13.296000000000001,0.033064377077147614
13.3,0.03306190090122631
13.304,0.03306377606357448
13.308,0.03307428178083282
13.312000000000001,0.03308072464633679
13.316,0.03308841762007288
13.32,0.03309719241824059
13.324,0.03310630378400927
13.328,0.03311063108173582
13.332,0.03311216967648303
13.336,0.033111953311596706
13.34,0.0331093809735037
13.344,0.03311055896010704
13.348,0.0331093809735037
13.352,0.03309233622856969
13.356,0.033084955781891634
13.36,0.03308223920054108
13.364,0.03309137460685268
13.368,0.03308651841718178
13.372,0.03307103630753791
13.376,0.03307252682119927
13.38,0.033073199956401185
13.384,0.03307759937575651
13.388,0.03308779256595682
13.392,0.03310079849967938
13.396,0.033104669027090354
13.4,0.03310120718890912
13.404,0.03309507685046317
13.408,0.0330953893775212
13.412,0.0330951970531778
13.416,0.033099644553618975
13.42,0.03310341891885824
13.424,0.033103250635057764
13.428,0.03310947713567541
13.432,0.03310772217604186
13.436,0.033104212256774776
13.44,0.033106736513781924
13.444,0.03310865975721595
13.448,0.03310548640554981
13.452,0.03309649524249576
13.456,0.033090941877080025
13.46,0.03310115910782326
13.464,0.03310832318961499
13.468,0.03311772304189877
13.472,0.03310137547270959
13.476,0.03310055809425013
13.48,0.03312265135319845
13.484,0.033114501609146786
13.488,0.03310551044609274
13.492,0.03310752985169846
13.496,0.0331111840142231
13.5,0.03311216967648303
13.504,0.033113467865801
13.508000000000001,0.03310902036535983
13.512,0.03311125613585188
13.516,0.033103539121572864
13.52,0.03309031682296397
13.524000000000001,0.033087816606499745
13.528,0.03308156606533918
13.532,0.033071372875138866
13.536,0.03307656563241072
13.540000000000001,0.0330794024164759
13.544,0.03307175752382567
13.548,0.03307276722662853
13.552,0.03307572421340833
13.556000000000001,0.03307091610482328
13.56,0.033061780698511685
13.564,0.03305223660297035
13.568,0.033038701777303434
13.572000000000001,0.03304115391268181
13.576,0.03304259634525732
13.58,0.03304915941347592
13.584,0.03305423196803315
13.588000000000001,0.03304848627827401
13.592,0.03305050568387973
13.596,0.033045986061809786
13.6,0.03303978360173507
13.604000000000001,0.03303588903378118
13.608,0.033036153479753354
13.612,0.033042428061456845
13.616,0.03303966339902044
13.620000000000001,0.033034927412064166
13.624,0.03304016825042187
13.628,0.033042956953401204
13.632,0.03304687556189802
13.636000000000001,0.03305276549491471
13.64,0.03304877476478912
13.644,0.03304293291285828
13.648,0.03306447323931931
13.652000000000001,0.03305985745507766
13.656,0.033061372009281956
13.66,0.03306966599659117
13.664,0.03307447410517622
13.668000000000001,0.03307697432164045
13.672,0.03307404137540357
13.676,0.0330655069826651
13.68,0.03306815144238688
13.684000000000001,0.03307161328056812
13.688,0.03307661371349657
13.692,0.03308050828145046
13.696,0.03308012363276366
13.700000000000001,0.033073849051060165
13.704,0.03308192667348305
13.708,0.03309587018837971
13.712,0.03309904354004584
13.716000000000001,0.03309808191832883
13.72,0.03309303340431453
13.724,0.03308601356578035
13.728,0.03308719155238369
13.732000000000001,0.03308428264668973
13.736,0.033078585038016445
13.74,0.033082022835654756
13.744,0.033085268308949665
13.748000000000001,0.033081301619366996
13.752,0.03307596461883759
13.756,0.033076156943180994
13.76,0.03308214303836938
13.764000000000001,0.03307743109195603
13.768,0.03306976215876287
13.772,0.033073440361830436
13.776,0.033078633119102294
13.780000000000001,0.03308082080850849
13.784,0.0330816862680538
13.788,0.03308363355203075
13.792,0.0330928170394282
13.796000000000001,0.03309651928303869
13.8,0.03308961964721914
13.804,0.03308925903907526
13.808,0.03308505194406334
13.812000000000001,0.033083970119631705
13.816,0.03308933116070403
13.82,0.03309108612033758
13.824,0.033095966350551405
13.828,0.033110174311420236
13.832,0.03311618444715155
13.836,0.033109885824905136
13.84,0.033110054108705614
13.844,0.03311250624408399
13.848,0.03310829914907207
13.852,0.033098634850816114
13.856,0.03310897228427397
13.86,0.03311536706869209
13.864,0.03311548727140672
13.868,0.03309788959398543
13.872,0.03309332189082963
13.876,0.03309974071579067
13.88,0.03309808191832883
13.884,0.03310091870239401
13.888,0.03309630291815236
13.892,0.03309447583689004
13.896,0.033099957080677
13.9,0.03309623079652359
13.904,0.033087455998355865
13.908,0.033087696403785116
13.912,0.033078224429872564
13.916,0.033067790834243
13.92,0.03306949771279069
13.924,0.03307358460508799
13.928,0.03306678113144014
13.932,0.033081758389682574
13.936,0.033092600674541874
13.94,0.03309125440413806
13.944,0.03308817721464362
13.948,0.03308115737610944
13.952,0.03306245383371359
13.956,0.03306175665796876
13.96,0.03307050741559355
13.964,0.03306226150937019
13.968,0.03305586672495207
13.972,0.03305774188730024
13.976,0.03306459344203394
13.98,0.03307031509125015
13.984,0.033069954483106276
13.988,0.033070771861565734
13.992,0.03306459344203394
13.996,0.03307048337505063
14.0,0.033081950714025976
14.004,0.03307565209177956
14.008000000000001,0.03306209322556971
14.012,0.033065675266465575
14.016,0.03306245383371359
14.02,0.033052068319169875
14.024000000000001,0.03302348411363174
14.028,0.033037571871785944
14.032,0.03304406281837576
14.036,0.03303733146635669
14.040000000000001,0.03303689873658404
14.044,0.033053486711202465
14.048,0.0330520923597128
14.052,0.03305043356225096
14.056000000000001,0.033043245439916304
14.06,0.03302814797895924
14.064,0.033018531761789136
14.068,0.03302144066748309
14.072000000000001,0.033021056018796284
14.076,0.03301256970714367
14.08,0.03301466123437817
14.084,0.03301235334225734
14.088000000000001,0.033007881801273245
14.092,0.03299759244890123
14.096,0.03300023690862301
14.1,0.03299167847534162
14.104000000000001,0.03299814538138851
14.108,0.03301362749103238
14.112,0.03301232930171442
14.116,0.03300838665267467
14.120000000000001,0.03301153596379788
14.124,0.03301872408613254
14.128,0.03301990207273588
14.132,0.03302394088394732
14.136000000000001,0.03302307542440201
14.14,0.03302093581608166
14.144,0.03301016565285114
14.148,0.03300600663892507
14.152000000000001,0.033003867030604726
14.156,0.033009636760906784
14.16,0.03301470931546402
14.164,0.033019829951107096
14.168000000000001,0.033016055585867836
14.172,0.033008891504076106
14.176,0.03301482951817864
14.18,0.033026994032898827
14.184000000000001,0.033028172019502165
14.188,0.03302733060049978
14.192,0.03302579200575256
14.196,0.03302908556013333
14.200000000000001,0.03303629772301091
14.204,0.03304302907502998
14.208,0.03302990293859279
14.212,0.033026994032898827
14.216000000000001,0.03303665833115478
14.22,0.03304439938597672
14.224,0.03304889496750374
14.228,0.033059641090191334
14.232000000000001,0.03307115651025254
14.236,0.0330630308067438
14.24,0.03305127498125334
14.244,0.03304617838615319
14.248000000000001,0.03305411176531852
14.252,0.033054328130204855
14.256,0.03305406368423267
14.26,0.03305074608930899
14.264000000000001,0.03304903921076129
14.268,0.033054664697805804
14.272,0.03306245383371359
14.276,0.03306190090122631
14.280000000000001,0.033061420090367805
14.284,0.033048534359359866
14.288,0.03306358373923108
14.292,0.033070363172336005
14.296000000000001,0.03307158924002519
14.3,0.03306584355026605
14.304,0.03306365586085985
14.308,0.03306795911804348
14.312000000000001,0.03306819952347273
14.316,0.03307476259169133
14.32,0.033090004295905945
14.324,0.03308663861989641
14.328000000000001,0.03307459430789085
14.332,0.03306401646900373
14.336,0.033065386779950474
14.34,0.0330723585373988
14.344,0.033069113064103886
14.348,0.033057525522413915
14.352,0.033045986061809786
14.356,0.03304819779175891
14.36,0.03306120372548148
14.364,0.03306444919877639
14.368,0.03307913797050372
14.372,0.033092841079971125
14.376,0.03309074955273662
14.38,0.033093177647572074
14.384,0.03308913883636063
14.388,0.03309940414818972
14.392,0.033102433256598306
14.396,0.03309560574240753
14.4,0.0330976732290991
14.404,0.033100606175335986
14.408,0.03310548640554981
14.412,0.03310683267595363
14.416,0.03310683267595363
14.42,0.03309651928303869
14.424,0.033088513782244575
14.428,0.03308836953898702
14.432,0.03308973984993376
14.436,0.033087143471297834
14.44,0.03309014853916349
14.444,0.033099235864389245
14.448,0.033098466567015636
14.452,0.033088994593103084
14.456,0.03308913883636063
14.46,0.03310476518926205
14.464,0.03309255259345602
14.468,0.033084138403432176
14.472,0.03309452391797589
14.476,0.03310255345931293
14.48,0.03310435650003232
14.484,0.03310716924355458
14.488,0.0331018562835681
14.492,0.03310601529749417
14.496,0.03310558256772151
14.5,0.03310397185134552
14.504,0.0330997647563336
14.508000000000001,0.03308519618732089
14.512,0.03308678286315396
14.516,0.03309103803925173
14.52,0.03309125440413806
14.524000000000001,0.03309613463435188
14.528,0.03309611059380896
14.532,0.03308901863364601
14.536,0.03308865802550213
14.540000000000001,0.033094019066574464
14.544,0.033094908566662695
14.548,0.03309267279617065
14.552,0.03308216707891231
14.556000000000001,0.033079763024619784
14.56,0.03307812826770086
14.564,0.03305824673870167
14.568,0.03306620415840993
14.572000000000001,0.033069185185732666
14.576,0.03306288656348624
14.58,0.033056443697982274
14.584,0.03305305398142981
14.588000000000001,0.0330544723734624
14.592,0.03305937664421916
14.596,0.03305464065726288
14.6,0.03302920576284795
14.604000000000001,0.033044952318464
14.608,0.033053967522060974
14.612,0.03305048164333681
14.616,0.033054376211290704
14.620000000000001,0.03304992871084953
14.624,0.033049880629763675
14.628,0.03305949684693378
14.632,0.0330590400766182
14.636000000000001,0.033057525522413915
14.64,0.033055313792464784
14.644,0.03304778910252918
14.648,0.03304687556189802
14.652000000000001,0.033043894534575284
14.656,0.033042788669600726
14.66,0.03304363008860311
14.664,0.03304548121040835
14.668000000000001,0.03304418302109039
14.672,0.03304903921076129
14.676,0.033056636022325676
14.68,0.03306774275315715
14.684000000000001,0.0330627423202287
14.688,0.03303701893929866
14.692,0.03306358373923108
14.696,0.03307019488853553
14.700000000000001,0.03306012190104984
14.704,0.033061732617425836
14.708,0.033073488442916285
14.712,0.0330726470239139
14.716000000000001,0.033083729714202446
14.72,0.033091759255539484
14.724,0.033096855850639643
14.728,0.033092792998885276
14.732000000000001,0.0330863501333813
14.736,0.033079282213761274
14.74,0.03308589336306572
14.744,0.033088153174100694
14.748000000000001,0.03309245643128432
14.752,0.03309303340431453
14.756,0.0330860616468662
14.76,0.03309442775580419
14.764000000000001,0.033091422687938535
14.768,0.033084258606146805
14.772,0.03309151885011023
14.776,0.033087744484870965
14.780000000000001,0.03307630118643854
14.784,0.033088465701158726
14.788,0.033093201688115005
14.792,0.03308346526823027
14.796000000000001,0.03306774275315715
14.8,0.03307517128092106
14.804,0.03307836867313012
14.808,0.033072791267171456
14.812000000000001,0.03308659053881056
14.816,0.03308699922804029
14.82,0.033077118564898
14.824,0.0330744500646333
14.828000000000001,0.033077815740642835
14.832,0.03307565209177956
14.836,0.03307735897032726
14.84,0.03308550871437892
14.844000000000001,0.03307945049756175
14.848,0.03307985918679148
14.852,0.033088874390388455
14.856,0.0330882493362724
14.86,0.033080700605793864
14.864,0.033080772727422644
14.868,0.0330883454984441
14.872,0.03309827424267223
14.876,0.033099957080677
14.88,0.03309743282366985
14.884,0.03309380270168814
14.888,0.03308401820071755
14.892,0.033078873524531545
14.896,0.033107818338213565
14.9,0.03313178675951005
14.904,0.033130993421593515
14.908,0.033124911164233425
14.912,0.03312286771808478
14.916,0.0331315463540808
14.92,0.0331315463540808
14.924,0.03312933462413167
14.928,0.03314092216582165
14.932,0.033137340124925786
14.936,0.03313157039462372
14.94,0.03313433505706013
14.944,0.03313294070557046
14.948,0.03312940674576045
14.952,0.03312524773183438
14.956,0.03312897401598779
14.96,0.03312902209707364
14.964,0.03312971927281848
14.968,0.03313332535425727
14.972,0.03313330131371434
14.976,0.03313226757036856
14.98,0.03312878169164439
14.984,0.0331203194205347
14.988,0.033118636582529934
14.992,0.03311690566343931
14.996,0.033115030501091144
15.0,0.03311077532499337
15.004,0.0331084193517867
15.008000000000001,0.03311796344732802
15.012,0.03312890189435902
15.016,0.03312457459663247
15.02,0.0331320271649393
15.024000000000001,0.03314075388202117
15.028,0.03312940674576045
15.032,0.033127050772553776
15.036,0.03313974417921831
15.040000000000001,0.03314635532852276
15.044,0.033157269735010826
15.048,0.03315137980199414
15.052,0.03314700442318174
15.056000000000001,0.03314142701722308
15.06,0.03314339834174295
15.064,0.03314731695023977
15.068,0.03314642745015153
15.072000000000001,0.033152726072397956
15.076,0.03316635706023658
15.08,0.03316989102004659
15.084,0.033169915060589514
15.088000000000001,0.03316479442494644
15.092,0.03316445785734548
15.096,0.03316575604666345
15.1,0.03316493866820399
15.104000000000001,0.03316073157319207
15.108,0.03314796604489875
15.112,0.03315075474787808
15.116,0.03316061137047744
15.120000000000001,0.033179098547986965
15.124,0.03317224699325327
15.128,0.033167270600867736
15.132,0.03315654851872307
15.136000000000001,0.03315320688325646
15.14,0.033149528680188896
15.144,0.03315628407275089
15.148,0.03315594750514994
15.152000000000001,0.033150947072221486
15.156,0.03315008161267617
15.16,0.033152774153483805
15.164,0.03315777458641226
15.168000000000001,0.03316150087056567
15.172,0.033163784722143576
15.176,0.03316623685752195
15.18,0.033167679290097465
15.184000000000001,0.03316508291146154
15.188,0.033162366330110986
15.192,0.03315964974876043
15.196,0.03316005843799016
15.200000000000001,0.033155610937548985
15.204,0.03315344728868571
15.208,0.033167150398153114
15.212,0.033157750545869336
15.216000000000001,0.03314741311241147
15.22,0.03316263077608316
15.224,0.03317429043940191
15.228,0.03316746292521114
15.232000000000001,0.03317308841225565
15.236,0.033176261763921785
15.24,0.033179170669615746
15.244,0.033175372263833554
15.248000000000001,0.03317224699325327
15.252,0.03315794287021274
15.256,0.033170588195791426
15.26,0.033179170669615746
15.264000000000001,0.03318061310219126
15.268,0.03318409898091542
15.272,0.03318429130525882
15.276,0.03318818587321272
15.280000000000001,0.033193474792656275
15.284,0.03319186407628028
15.288,0.03318972446795993
15.292,0.0331911188194496
15.296000000000001,0.03318717617040986
15.3,0.033186791521723054
15.304,0.03320030230684705
15.308,0.03318619050814992
15.312000000000001,0.033177680155954375
15.316,0.033192465089853414
15.32,0.03319393156297185
15.324,0.03319361903591383
15.328000000000001,0.033198451185041805
15.332,0.033201047563677734
15.336,0.03320032634738997
15.34,0.03318859456244245
15.344000000000001,0.03319515763066104
15.348,0.033198571387756434
15.352,0.03319212852225246
15.356,0.03319446045491621
15.36,0.033195253792832745
15.364,0.03319037356261892
15.368,0.033198042495812076
15.372,0.03320494213163162
15.376,0.033205903753348635
15.38,0.033210880145734166
15.384,0.03321948666010141
15.388,0.03322842974206961
15.392,0.03323706029697978
15.396,0.03324309447325402
15.4,0.03324703712229376
15.404,0.033246965000664985
15.408,0.033250330676674524
15.412,0.03324759005478104
15.416,0.03325343190671188
15.42,0.0332685774487548
15.424,0.03325338382562603
15.428,0.03323944031072938
15.432,0.03324585913569043
15.436,0.03325410504191379
15.44,0.03325309533911093
15.444,0.033262591353566406
15.448,0.03326367317799804
15.452,0.033262591353566406
15.456,0.033270212205673715
15.46,0.03327574153054653
15.464,0.03328583855857514
15.468,0.033280501558045725
15.472,0.03327465970611489
15.476,0.033278073463210274
15.48,0.03329309880253857
15.484,0.03328651169377705
15.488,0.03327485203045829
15.492,0.03328232863930805
15.496,0.03327896296329851
15.5,0.03326292792116736
15.504,0.033275837692718226
15.508000000000001,0.03327225565182236
15.512,0.03326131720479137
15.516,0.03327206332747896
15.52,0.03326937078667133
15.524000000000001,0.03326751966486609
15.528,0.03327615021977626
15.532,0.03326833704332555
15.536,0.03327338555733985
15.540000000000001,0.03328153530139152
15.544,0.03327470778720074
15.548,0.03326324044822539
15.552,0.03326994775970154
15.556000000000001,0.03328545390988834
15.56,0.03328841089666815
15.564,0.03327881872004096
15.568,0.0332780013415815
15.572000000000001,0.03328877150481202
15.576,0.03329725781646464
15.58,0.033295262451401846
15.584,0.03329824347872458
15.588000000000001,0.033283121977224585
15.592,0.03328283349070948
15.596,0.03328747331549406
15.6,0.0332837951124265
15.604000000000001,0.03328701654517848
15.608,0.03329021393738754
15.612,0.03327658294954891
15.616,0.033280573679674505
15.620000000000001,0.033279515895785795
15.624,0.033280261152616473
15.628,0.03328982928870074
15.632,0.03328470865305765
15.636000000000001,0.03328812241015304
15.64,0.033276198300862106
15.644,0.03327836194972538
15.648,0.03328444420708548
15.652000000000001,0.0332844682476284
15.656,0.033287401193865286
15.66,0.03328867534264032
15.664,0.03329273819439469
15.668000000000001,0.03329442103239946
15.672,0.033294661437828714
15.676,0.03328783392363794
15.68,0.03328230459876512
15.684000000000001,0.0332803813553311
15.688,0.03328079004456083
15.692,0.03327963609850042
15.696,0.03327434717905686
15.700000000000001,0.0332734336384257
15.704,0.03327280858430964
15.708,0.03327456354394319
15.712,0.0332825690447373
15.716000000000001,0.03328824261286767
15.72,0.03328735311277943
15.724,0.03328064580130328
15.728,0.033299878235643496
15.732000000000001,0.03330574412811726
15.736,0.03330079177627465
15.74,0.03329295455928102
15.744,0.03330091197898928
15.748000000000001,0.03331889430509738
15.752,0.03330410937119834
15.756,0.033305263317258756
15.76,0.0333143506424845
15.764000000000001,0.03331403811542648
15.768,0.03330699423634937
15.772,0.03330547968214508
15.776,0.03330043116813078
15.780000000000001,0.033310287790730135
15.784,0.033306369182233314
15.788,0.03330509503345828
15.792,0.03331783652120866
15.796000000000001,0.03331889430509738
15.8,0.03331329285859579
15.804,0.03331124941244715
15.808,0.03331242739905048
15.812000000000001,0.03331322073696701
15.816,0.03330894152032632
15.82,0.03331278800719436
15.824,0.03331764419686527
15.828000000000001,0.03331579307506002
15.832,0.033315552669630766
15.836,0.03331918279161248
15.84,0.03331764419686527
15.844000000000001,0.03332050502147337
15.848,0.03332379857585413
15.852,0.03331725954817846
15.856,0.03331218699362123
15.860000000000001,0.03330670574983427
15.864,0.033315192061486885
15.868,0.03332141856210453
15.872,0.03332497656245747
15.876,0.03331185042602028
15.88,0.033310239709644286
15.884,0.03332663535991931
15.888,0.03332831819792408
15.892,0.03333055396841613
15.896,0.03333120306307511
15.9,0.03333180407664824
15.904,0.03332629879231836
15.908,0.03332173108916256
15.912,0.033313364980224566
15.916,0.03330812414186686
15.92,0.03330687403363475
15.924,0.03331557671017369
15.928,0.0333301452791864
15.932,0.03333440045528417
15.936,0.0333274767789217
15.94,0.03332726041403537
15.944,0.033331106900903414
15.948,0.033332645495650626
15.952,0.03333615541491772
15.956,0.033334833185056825
15.96,0.033342718483136316
15.964,0.033343006969651416
15.968,0.03334517061851469
15.972,0.03333303014433743
15.976,0.03334269444259339
15.98,0.03333964129364188
15.984,0.033345483145572716
15.988,0.033348512253981305
15.992,0.033350219132528995
15.996,0.03335505128165697
16.0,0.03336493194479926
16.004,0.033369619850669684
16.008,0.033364475174483675
16.012,0.03336260001213551
16.016000000000002,0.03336274425539306
16.02,0.03336233556616333
16.024,0.03336385012036762
16.028,0.03337291340505044
16.032,0.0333776253514638
16.036,0.03337892354078176
16.04,0.0333781061623223
16.044,0.033376615648660936
16.048000000000002,0.033385534690086205
16.052,0.0333914246231029
16.056,0.033383058514164905
16.06,0.03338339508176586
16.064,0.03337745706766332
16.068,0.03337538958097175
16.072,0.03338837147415139
16.076,0.03339673758308938
16.080000000000002,0.03338101506801626
16.084,0.033369908337184784
16.088,0.03338327487905123
16.092,0.033384116298053615
16.096,0.0333800053652134
16.1,0.03337526937825712
16.104,0.03337397118893916
16.108,0.03338212093299082
16.112000000000002,0.033386376109088595
16.116,0.03338875612283819
16.12,0.0333872415686339
16.124,0.0333918092717897
16.128,0.03338416437913947
16.132,0.03338760217677778
16.136,0.033381640122132315
16.14,0.033383707608823886
16.144000000000002,0.033404430556825467
16.148,0.03340923866541052
16.152,0.03339577596137237
16.156,0.03339527110997094
16.16,0.0334053200569137
16.164,0.03340575278668635
16.168,0.0334095992735544
16.172,0.03340611339483023
16.176000000000002,0.03340724330034772
16.18,0.03341640274720224
16.184,0.03341967226104008
16.188,0.033404839246055196
16.192,0.033411690800788894
16.196,0.03341421505779605
16.2,0.033415176679513055
16.204,0.033422052274789685
16.208000000000002,0.03342467269396854
16.212,0.03342145126121655
16.216,0.03341505647679843
16.22,0.03341024836821338
16.224,0.03341421505779605
16.228,0.03341190716567522
16.232,0.03340596915157268
16.236,0.03340221882687634
16.240000000000002,0.03339392483956712
16.244,0.033409382908668066
16.248,0.03341395061182387
16.252,0.03340786835446378
16.256,0.033412339895447875
16.26,0.03341361404422292
16.264,0.033413421719879516
16.268,0.033412291814362026
16.272000000000002,0.03341536900385646
16.276,0.033419864585383485
16.28,0.03342515350482704
16.284,0.033430610708071073
16.288,0.033421980153160905
16.292,0.03342789412672052
16.296,0.03343599578968633
16.3,0.033421307017959
16.304000000000002,0.03341919145018157
16.308,0.03342688442391766
16.312,0.03343003373504087
16.316,0.03342262924781989
16.32,0.03342924039712434
16.324,0.03343601983022926
16.328,0.03343621215457266
16.332,0.033427966248349296
16.336000000000002,0.033424648653425613
16.34,0.03342592280220065
16.344,0.03342904807278094
16.348,0.033435178411226875
16.352,0.03342936059983896
16.356,0.03343457739765374
16.36,0.03344460230405358
16.364,0.03344005864144071
16.368000000000002,0.03344301562822051
16.372,0.03344065965501384
16.376,0.03344099622261479
16.38,0.03344936233155278
16.384,0.033453713669822256
16.388,0.033442703101162485
16.392,0.033445660087942294
16.396,0.03345674277823084
16.4,0.033453761750908105
16.404,0.03345150193987313
16.408,0.0334599401704399
16.412,0.03346789759014816
16.416,0.03346152684627297
16.42,0.033460565224555955
16.424,0.03347390772587948
16.428,0.033480566956269775
16.432,0.033483355659249106
16.436,0.0334881156867483
16.44,0.03348378838902176
16.444,0.03348652901091524
16.448,0.03349633755242874
16.452,0.03349578461994147
16.456,0.03348994276801063
16.46,0.033488380132720486
16.464,0.03347337883393512
16.468,0.033474100050222874
16.472,0.03349054378158376
16.476,0.03349460663333813
16.48,0.03348809164620538
16.484,0.033480927564413655
16.488,0.03347614349637153
16.492,0.03347705703700268
16.496,0.03349042357886913
16.5,0.03350326122879122
16.504,0.0335010494988421
16.508,0.03350287658010442
16.512,0.03350744428326022
16.516000000000002,0.03350720387783097
16.52,0.033502227485445436
16.524,0.033510497432211725
16.528,0.03351273320270377
16.532,0.033510617634926354
16.536,0.03351850293300584
16.54,0.03351100228361316
16.544,0.03351172349990091
16.548000000000002,0.03351571423002651
16.552,0.03352352740647722
16.556,0.033529729866551936
16.56,0.0335355957590257
16.564,0.033535475556311076
16.568,0.03352720560954479
16.572,0.033529369258408055
16.576,0.03353141270455671
16.580000000000002,0.0335359804077125
16.584,0.033546822692571795
16.588,0.03353982689458055
16.592,0.033545764908683086
16.596,0.03352852783940567
16.6,0.033534826461652095
16.604,0.03355778518014572
16.608,0.03356170378864254
16.612000000000002,0.033564708856508196
16.616,0.033558770842405654
16.62,0.03356381935641996
16.624,0.03356574259985398
16.628,0.033564997343023296
16.632,0.0335670888702578
16.636,0.03356201631570056
16.64,0.033558314072090076
16.644000000000002,0.033553049193189445
16.648,0.033570550708439034
16.652,0.033568314937946986
16.656,0.03355083746324032
16.66,0.03355189524712903
16.664,0.033548000679175134
16.668,0.03355509263933809
16.672,0.033559900747923144
16.676000000000002,0.033553698287848426
16.68,0.03355259242287386
16.684,0.03354326469221886
16.688,0.033540860637926335
16.692,0.03354535621945336
16.696,0.03355994882900899
16.7,0.033556414869198976
16.704,0.0335563427475702
16.708000000000002,0.03354723138180153
16.712,0.033542038624529674
16.716,0.033547664111574185
16.72,0.033548601692748266
16.724,0.03355523688259564
16.728,0.033548000679175134
16.732,0.03355052493618229
16.736,0.033563578950990706
16.740000000000002,0.033560549842582124
16.744,0.033554996477166386
16.748,0.033564636734879416
16.752,0.03357290668164571
16.756,0.0335586265991481
16.76,0.03357492608725143
16.764,0.03358086410135397
16.768,0.03357992652017989
16.772000000000002,0.033578964898462876
16.776,0.03357341153304714
16.78,0.03356326642393268
16.784,0.033564059761849216
16.788,0.033574805884536804
16.792,0.033580094803980366
16.796,0.03358086410135397
16.8,0.0335724258707872
16.804000000000002,0.033564708856508196
16.808,0.03358028712832377
16.812,0.033582739263702144
16.816,0.033576825290142526
16.82,0.03357307496544619
16.824,0.033580551574295944
16.828,0.033591081332097206
16.832,0.03359168234567034
16.836000000000002,0.033570839194954134
16.84,0.03357136808689849
16.844,0.0335763204387411
16.848,0.0335743250736783
16.852,0.03356430016727847
16.856,0.03355468395010836
16.86,0.033567665843288005
16.864,0.03356158358592791
16.868000000000002,0.03355136635518467
16.872,0.033560093072266546
16.876,0.03356677634319977
16.88,0.033565814721482755
16.884,0.033575406898109936
16.888,0.033578724493033625
16.892,0.03357134404635557
