0.0,-0.01937802386816627
0.004,-0.019366075718332414
0.008,-0.019350353203259292
0.012,-0.019332226633893643
0.016,-0.019346843283992204
0.02,-0.0193762448679898
0.024,-0.019376629516676604
0.028,-0.019376773759934154
0.032,-0.019353887163069305
0.036000000000000004,-0.019272678209067765
0.04,-0.01926717292473788
0.044,-0.019400597937973094
0.048,-0.019456636443531884
0.052000000000000005,-0.01943634622530296
0.056,-0.019370763624202838
0.06,-0.019331914106835615
0.064,-0.01930304141478237
0.068,-0.019285323534646452
0.07200000000000001,-0.01926712484365203
0.076,-0.019255056491103546
0.08,-0.019243348746698943
0.084,-0.019228876339857936
0.088,-0.019220918920149675
0.092,-0.01921094209483569
0.096,-0.019198633336857954
0.1,-0.019191012484750646
0.10400000000000001,-0.019172549347784045
0.108,-0.01912704060002652
0.112,-0.01909711012408457
0.116,-0.019140623506779295
0.12,-0.019223587420414377
0.124,-0.019198945863915982
0.128,-0.019158894319402493
0.132,-0.019124588464648144
0.136,-0.019088888258404126
0.14,-0.019090498974780122
0.14400000000000002,-0.019100668124437507
0.148,-0.019074391811020195
0.152,-0.01905979920146456
0.156,-0.019038355037175225
0.16,-0.01902486829259415
0.164,-0.01902229595450115
0.168,-0.019004962723052035
0.17200000000000001,-0.019016862791800038
0.176,-0.019019964021837397
0.18,-0.019125333721478826
0.184,-0.019132593965442257
0.188,-0.019101485502896965
0.192,-0.01907619485173959
0.196,-0.019059462633863607
0.2,-0.019041360105040882
0.20400000000000001,-0.019032392982529758
0.20800000000000002,-0.019022464238301624
0.212,-0.01900969871000831
0.216,-0.018997582276373975
0.22,-0.018986211099570324
0.224,-0.018970127976353324
0.228,-0.01895781921837559
0.232,-0.018932504526675286
0.23600000000000002,-0.018917719592776248
0.24,-0.018919811120010746
0.244,-0.01890081909109979
0.248,-0.01886401301988121
0.252,-0.018850189707699184
0.256,-0.018856223883973428
0.26,-0.018873629237051315
0.264,-0.018880841399928894
0.268,-0.01886396493879536
0.272,-0.01888199534598931
0.276,-0.018877451683376432
0.28,-0.018857017221889958
0.28400000000000003,-0.018825932799887594
0.28800000000000003,-0.018777491105893187
0.292,-0.018786842877091113
0.296,-0.018863748573909035
0.3,-0.018854492964882806
0.304,-0.018833577692537826
0.308,-0.018804560757227032
0.312,-0.01874972427881451
0.316,-0.018713807707684164
0.32,-0.018857449951662615
0.324,-0.01888057695395672
0.328,-0.018842280369076772
0.332,-0.01881194120390509
0.336,-0.018788141066409077
0.34,-0.018755638252374123
0.34400000000000003,-0.018749387711213553
0.34800000000000003,-0.018772586835136433
0.352,-0.018761936874620543
0.356,-0.018761912834077615
0.36,-0.01874494021077238
0.364,-0.01876001363118652
0.368,-0.01879213179653467
0.372,-0.018758667360782705
0.376,-0.01871169213990674
0.38,-0.018788862282696835
0.384,-0.01879270876956488
0.388,-0.018746190319004492
0.392,-0.018720442897531536
0.396,-0.018704960787887668
0.4,-0.01867551112280422
0.404,-0.01865651909389326
0.40800000000000003,-0.018689454637700872
0.41200000000000003,-0.018693445367826467
0.41600000000000004,-0.01866413994600057
0.42,-0.018630459145362276
0.424,-0.0185849984786906
0.428,-0.018592330844282804
0.432,-0.01863024278047595
0.436,-0.018643465079084844
0.44,-0.018668731689699295
0.444,-0.018659908810445724
0.448,-0.018608365886413954
0.452,-0.01856398704417392
0.456,-0.018606634967323336
0.46,-0.01858591201932176
0.464,-0.018561318543909217
0.468,-0.01854100428513737
0.47200000000000003,-0.018495134929235966
0.47600000000000003,-0.01851941587759048
0.48,-0.018539802257991105
0.484,-0.018469050940162057
0.488,-0.01838558217512554
0.492,-0.018319518763166915
0.496,-0.01840842069090454
0.5,-0.0186326708753114
0.504,-0.018591176898222393
0.508,-0.018530113919192223
0.512,-0.018490567226080164
0.516,-0.01846679112912708
0.52,-0.018451693668170014
0.524,-0.018431499612112795
0.528,-0.018505544484322605
0.532,-0.01853470566289095
0.536,-0.01850181820016919
0.54,-0.01847962877904917
0.544,-0.018484797495778103
0.548,-0.018481936671169995
0.552,-0.018457511479557927
0.556,-0.018397866892560347
0.56,-0.018370220268196295
0.5640000000000001,-0.018452198519571444
0.5680000000000001,-0.018474844711007042
0.5720000000000001,-0.018442606342944267
0.5760000000000001,-0.018391375945970526
0.58,-0.018308508194507144
0.584,-0.01831639349258663
0.588,-0.018418036908074645
0.592,-0.018435706707124716
0.596,-0.018483258901030884
0.6,-0.018428446463161285
0.604,-0.01839029412153889
0.608,-0.018369763497880717
0.612,-0.01834944923910887
0.616,-0.01833476046738153
0.62,-0.01830492615361128
0.624,-0.01825768648676314
0.628,-0.018292665476719396
0.632,-0.018379043147449866
0.636,-0.018408228366561138
0.64,-0.018375244741667674
0.644,-0.018340746562569923
0.648,-0.018314037519379954
0.652,-0.018299036220594592
0.656,-0.018277255488704302
0.66,-0.018257470121876812
0.664,-0.018233718065466652
0.668,-0.018166693031791015
0.672,-0.01833461622412398
0.676,-0.01840380490666289
0.68,-0.018340578278769445
0.684,-0.018299685315253573
0.6880000000000001,-0.018265042892898268
0.6920000000000001,-0.01822878975416697
0.6960000000000001,-0.01820239323803503
0.7000000000000001,-0.018248118350678882
0.704,-0.01829204042260334
0.708,-0.0182745869884396
0.712,-0.018245209444984926
0.716,-0.018264874609097793
0.72,-0.018271461717859313
0.724,-0.01821645695564631
0.728,-0.018164000490983385
0.732,-0.018184483033555708
0.736,-0.018250233918456305
0.74,-0.01823970416065504
0.744,-0.01819696007533392
0.748,-0.018246291269416563
0.752,-0.018256075770387147
0.756,-0.01821458179329814
0.76,-0.01818234342523536
0.764,-0.018192416412721048
0.768,-0.01820955731982676
0.772,-0.018194339656155068
0.776,-0.01817864118162487
0.78,-0.018154985287386412
0.784,-0.018144215124155892
0.788,-0.018146186448675765
0.792,-0.01811652041870599
0.796,-0.018111832512835564
0.8,-0.01815462467924253
0.804,-0.018094403119214748
0.808,-0.018082070320694088
0.812,-0.018218716766681287
0.8160000000000001,-0.018175996721903093
0.8200000000000001,-0.018134671028614564
0.8240000000000001,-0.01811048624243175
0.8280000000000001,-0.01810074982254702
0.8320000000000001,-0.018113010499438902
0.836,-0.018103754890412677
0.84,-0.018083152145125726
0.844,-0.01807860848251285
0.848,-0.018065746792047834
0.852,-0.018060650196947678
0.856,-0.0180716126845216
0.86,-0.018046466276621775
0.864,-0.017996197501365045
0.868,-0.017923522940101973
0.872,-0.017939077171374617
0.876,-0.01810226437675131
0.88,-0.01817453024878465
0.884,-0.01814642685410502
0.888,-0.018118227297253684
0.892,-0.018085027307473897
0.896,-0.018054063088186155
0.9,-0.018042451505953256
0.904,-0.01803475853221717
0.908,-0.0180194687469167
0.912,-0.018014227908558993
0.916,-0.018009948691918295
0.92,-0.018003794312929425
0.924,-0.018003722191300652
0.928,-0.01800088540723547
0.932,-0.017988119878942155
0.936,-0.017951746537496233
0.9400000000000001,-0.01793337956270133
0.9440000000000001,-0.017998986204344373
0.9480000000000001,-0.018033003572583625
0.9520000000000001,-0.017978263256342795
0.9560000000000001,-0.01794616913153757
0.96,-0.017933163197815002
0.964,-0.017906406073539185
0.968,-0.01797196463409638
0.972,-0.017966050660536765
0.976,-0.018017473381853902
0.98,-0.01806882398154227
0.984,-0.018018410963027986
0.988,-0.01798124428366553
0.992,-0.01795835768680068
0.996,-0.01793703372522597
1.0,-0.017914267331075748
1.004,-0.017920277466807064
1.008,-0.01794845298311547
1.012,-0.017950063699491463
1.016,-0.017956650808252986
1.02,-0.017952443713241065
1.024,-0.017907824465571775
1.028,-0.01790715133036987
1.032,-0.017971892512467603
1.036,-0.017965641971307032
1.04,-0.01792871569737383
1.044,-0.017861810866412822
1.048,-0.017807647523202203
1.052,-0.0178804422871799
1.056,-0.017912392168727576
1.06,-0.017940880212094012
1.064,-0.017900419978350793
1.068,-0.01787688428682696
1.072,-0.01786084924469581
1.076,-0.017850487770695023
1.08,-0.01784558349993827
1.084,-0.017823947011305533
1.088,-0.017811662293870722
1.092,-0.01780649357714179
1.096,-0.017769182654521782
1.1,-0.01779425694079283
1.104,-0.01786185894749867
1.108,-0.01786979232666401
1.112,-0.01784207358067118
1.116,-0.01782736076840092
1.12,-0.017830437957895354
1.124,-0.017838299215431914
1.1280000000000001,-0.017797310089744337
1.1320000000000001,-0.017768413357148172
1.1360000000000001,-0.017789809440351658
1.1400000000000001,-0.017783775264077414
1.1440000000000001,-0.01778781407528886
1.1480000000000001,-0.017762066653815904
1.1520000000000001,-0.017765240005482037
1.156,-0.017802911536245924
1.16,-0.0178164944429987
1.164,-0.017795747454454197
1.168,-0.01776511980276741
1.172,-0.017721293893014658
1.176,-0.017743940084450256
1.18,-0.017809306320664044
1.184,-0.017778750790606035
1.188,-0.01775187346361559
1.192,-0.017723697947307184
1.196,-0.017698503458321507
1.2,-0.017744829584538487
1.204,-0.01777132226284213
1.208,-0.0177185773116641
1.212,-0.01767544857765618
1.216,-0.01771961105500989
1.22,-0.0176843195379956
1.224,-0.01766321194130722
1.228,-0.017670376023098948
1.232,-0.01778964115655118
1.236,-0.017746368179285706
1.24,-0.017692325038789713
1.244,-0.017690738362956645
1.248,-0.017706725324001946
1.252,-0.017686242781429624
1.256,-0.01770559541848446
1.26,-0.01768121830795824
1.264,-0.01766249072501946
1.268,-0.017669077833780984
1.272,-0.01765849999489387
1.276,-0.017649172264238868
1.28,-0.017596379231974987
1.284,-0.0175658477424599
1.288,-0.017705403094141058
1.292,-0.01769965740438192
1.296,-0.017667923887720573
1.3,-0.017652778345677658
1.304,-0.017644219912396262
1.308,-0.01761544338251472
1.312,-0.017649124183153016
1.316,-0.01763465177631201
1.32,-0.017600345921557653
1.324,-0.01763914735783903
1.328,-0.017674871604625973
1.332,-0.01764393142588116
1.336,-0.017621645842589437
1.34,-0.017610947800987695
1.344,-0.0176043847327691
1.348,-0.01759849479975241
1.352,-0.017589143028554483
1.356,-0.017572627175564827
1.36,-0.017525772157403488
1.364,-0.01749956796561495
1.368,-0.017558419214695996
1.372,-0.017625251924028227
1.3760000000000001,-0.01762366524819516
1.3800000000000001,-0.017571449188961488
1.3840000000000001,-0.01754459590251397
1.3880000000000001,-0.017552986051994887
1.3920000000000001,-0.017593446285738105
1.3960000000000001,-0.017600105516128402
1.4000000000000001,-0.01757733912197818
1.4040000000000001,-0.017544067010569615
1.408,-0.017527575198122883
1.412,-0.017519257170270742
1.416,-0.017510915101875676
1.42,-0.01750329424976837
1.424,-0.017496034005804937
1.428,-0.017488196788811302
1.432,-0.017477522787752484
1.436,-0.01745273698799654
1.44,-0.017410449672990998
1.444,-0.01739128936027956
1.448,-0.01747942199064358
1.452,-0.017562025296134785
1.456,-0.017527767522466285
1.46,-0.01748093654484787
1.464,-0.017489759424101442
1.468,-0.017528608941468668
1.472,-0.017489543059215115
1.476,-0.017462281083537867
1.48,-0.01747942199064358
1.484,-0.017464276448600664
1.488,-0.01745088586619129
1.492,-0.01749567339766106
1.496,-0.017480672098875695
1.5,-0.01745273698799654
1.504,-0.017442543797796226
1.508,-0.017426003904263642
1.512,-0.01740734844295364
1.516,-0.017480816342133245
1.52,-0.017432446769767615
1.524,-0.017427157850324053
1.528,-0.01753185441476358
1.532,-0.01746273785385345
1.536,-0.017465887164976657
1.54,-0.017509496709843086
1.544,-0.017465887164976657
1.548,-0.01741975336310307
1.552,-0.017427350174667455
1.556,-0.01748237897742339
1.56,-0.01745946834001561
1.564,-0.017423599849971116
1.568,-0.01745081374456252
1.572,-0.017433528594199253
1.576,-0.017391577846794664
1.58,-0.017401843158623753
1.584,-0.01741936871441627
1.588,-0.01736369081700136
1.592,-0.017461944515936915
1.596,-0.01744415451417222
1.6,-0.017323110380543516
1.604,-0.017311643041568164
1.608,-0.017475695706490164
1.612,-0.017509376507128457
1.616,-0.01744896262275727
1.62,-0.01744151005445044
1.624,-0.0174267251205514
1.6280000000000001,-0.017409175524215958
1.6320000000000001,-0.01739196249548147
1.6360000000000001,-0.017372802182770035
1.6400000000000001,-0.01735780088398467
1.6440000000000001,-0.017383812751429806
1.6480000000000001,-0.017359099073302634
1.6520000000000001,-0.017344338179946524
1.6560000000000001,-0.017378595953615024
1.6600000000000001,-0.01741256524076842
1.6640000000000001,-0.017345756571979114
1.668,-0.017352295599654784
1.672,-0.017340131084934603
1.676,-0.01737059045282091
1.68,-0.017333976705945733
1.684,-0.01739434250923107
1.688,-0.017475287017260435
1.692,-0.01741261332185427
1.696,-0.017383187697313746
1.7,-0.017371383790737445
1.704,-0.01735628632978038
1.708,-0.01733897713887419
1.712,-0.017320874610051464
1.716,-0.017337678949556224
1.72,-0.01737359552068657
1.724,-0.017379413332074482
1.728,-0.01732856758378755
1.732,-0.017330058097448916
1.736,-0.01730322885154432
1.74,-0.017304478959776437
1.744,-0.017349843464276406
1.748,-0.017347319207269254
1.752,-0.017391938454938544
1.756,-0.017353810153859076
1.76,-0.017354122680917104
1.764,-0.017336765408925064
1.768,-0.017312292136227148
1.772,-0.017309407271076115
1.776,-0.017346838396410748
1.78,-0.017349771342647632
1.784,-0.017325706759179445
1.788,-0.017311522838853538
1.792,-0.017300728635080094
1.796,-0.017282169335941792
1.8,-0.01720689839604279
1.804,-0.017203268274061077
1.808,-0.017392539468511676
1.812,-0.01737049429064921
1.816,-0.01727024522665086
1.82,-0.01721704350515725
1.824,-0.01730522421660712
1.828,-0.017334577719518865
1.832,-0.017292170201798702
1.836,-0.017280895187166752
1.84,-0.017276784254326532
1.844,-0.017264403374720023
1.848,-0.017255965144153253
1.852,-0.017251758049141332
1.856,-0.017237694331530055
1.86,-0.017234088250091265
1.864,-0.017209254369249465
1.868,-0.017147902903704194
1.872,-0.01721124973431226
1.8760000000000001,-0.01728938149881937
1.8800000000000001,-0.017311522838853538
1.8840000000000001,-0.017350805085993418
1.8880000000000001,-0.017252214819456914
1.8920000000000001,-0.01721735603221528
1.8960000000000001,-0.017256349792840058
1.9000000000000001,-0.017325033623977536
1.9040000000000001,-0.01730623391940998
1.9080000000000001,-0.017256926765870265
1.9120000000000001,-0.01724781540010159
1.9160000000000001,-0.017255412211665974
1.92,-0.017233992087919564
1.924,-0.017221298681255024
1.928,-0.01721370186969064
1.932,-0.01720507131478047
1.936,-0.01722074574876774
1.94,-0.017200792098139774
1.944,-0.017123453671549202
1.948,-0.017113693211121543
1.952,-0.017212115193857572
1.956,-0.017178049744532475
1.96,-0.01723343915543228
1.964,-0.01725988375265007
1.968,-0.017212764288516553
1.972,-0.0171961522733552
1.976,-0.017187882326588907
1.98,-0.017178698839191455
1.984,-0.017184949380352026
1.988,-0.01721627420778364
1.992,-0.017187113029215297
1.996,-0.01717761701475982
2.0,-0.017143070754576217
2.004,-0.0171505714039689
2.008,-0.017156437296442662
2.012,-0.017102466277575445
2.016,-0.017110736224341738
2.02,-0.017195455097610366
2.024,-0.017194902165123083
2.028,-0.01712412680675111
2.032,-0.017071574179916484
2.036,-0.0171759822578409
2.04,-0.017144801673666835
2.044,-0.017073689747693906
2.048,-0.017118717684592926
2.052,-0.017085830221871164
2.056,-0.017130329266825825
2.06,-0.017225698100610348
2.064,-0.017170573135682717
2.068,-0.017143840051949823
2.072,-0.017119102333279727
2.076,-0.017101865264002314
2.08,-0.017089364181681176
2.084,-0.017084267586581024
2.088,-0.017119967792825038
2.092,-0.017070083666255117
2.096,-0.017034816189783752
2.1,-0.017143190957290843
2.104,-0.017090301762855264
2.108,-0.017057342178504728
2.112,-0.017120376482054767
2.116,-0.017176463068699407
2.12,-0.01715045120125427
2.124,-0.017122660333632668
2.128,-0.017107154183445872
2.132,-0.017094100168637456
2.136,-0.01707945947799597
2.14,-0.01707114145014383
2.144,-0.0170684489093362
2.148,-0.017060563611256713
2.152,-0.017042845731120793
2.156,-0.017059746232797254
2.16,-0.01706010684094113
2.164,-0.017073833990951456
2.168,-0.01701315566060809
2.172,-0.017042268758090586
2.176,-0.01711261138668991
2.18,-0.017017386796162937
2.184,-0.01699209614500556
2.188,-0.017072896409777372
2.192,-0.01712275649580437
2.196,-0.017099485250252715
2.2,-0.017036186500730497
2.204,-0.0170322919327766
2.208,-0.017037869338735263
2.212,-0.017075011977554795
2.216,-0.01704250916351984
2.22,-0.017052173461775795
2.224,-0.01705895289488072
2.228,-0.017044720893468965
2.232,-0.017019261958511108
2.236,-0.016991278766546103
2.24,-0.017008828362881544
2.244,-0.01701524718784259
2.248,-0.01698570136058744
2.2520000000000002,-0.016996447483275032
2.2560000000000002,-0.01697199825112004
2.2600000000000002,-0.016888577567169376
2.2640000000000002,-0.017034647905983278
2.2680000000000002,-0.017165260175696233
2.2720000000000002,-0.01710148061531551
2.2760000000000002,-0.017045394028670873
2.2800000000000002,-0.01703575377095784
2.2840000000000003,-0.017024454715782966
2.2880000000000003,-0.017013131620065167
2.2920000000000003,-0.01699904386191096
2.2960000000000003,-0.017002842267693153
2.3000000000000003,-0.01701447789046898
2.3040000000000003,-0.017005943497730512
2.308,-0.0169980341591081
2.312,-0.01698834582030922
2.316,-0.01693800492342372
2.32,-0.016922955543552505
2.324,-0.017014718295898235
2.328,-0.01702387774275276
2.332,-0.016994956969613666
2.336,-0.01696545922344437
2.34,-0.0169795710221415
2.344,-0.01701366051200952
2.348,-0.016982071238605727
2.352,-0.017018324377337024
2.356,-0.017019406201768658
2.36,-0.017001279632403013
2.364,-0.016986326414703497
2.368,-0.016960410709430065
2.372,-0.01695529007378698
2.376,-0.016974810994642296
2.38,-0.016925287476216255
2.384,-0.01690408371735617
2.388,-0.017029407067625568
2.392,-0.016999284267340216
2.396,-0.01697445038649842
2.4,-0.016964665885527835
2.404,-0.016972166534920518
2.408,-0.016965747709959473
2.412,-0.016941322518347405
2.416,-0.01690475685255808
2.42,-0.01698108557634579
2.424,-0.016968776818368055
2.428,-0.016952236924835475
2.432,-0.016984667617241656
2.436,-0.01697546008930128
2.44,-0.016943750613182856
2.444,-0.016933341058096216
2.448,-0.01692004663785855
2.452,-0.016912690231723416
2.456,-0.016893265473039803
2.46,-0.016856723847793402
2.464,-0.01694454395109939
2.468,-0.016971878048405414
2.472,-0.016960458790515914
2.476,-0.016993995347896657
2.48,-0.0169703394536582
2.484,-0.016919637948628816
2.488,-0.016905598271560462
2.492,-0.016960915560831496
2.496,-0.016926633746620068
2.5,-0.016884899364101813
2.504,-0.016870955849205158
2.508,-0.016902953811838685
2.512,-0.016873119498068433
2.516,-0.016968632575110505
2.52,-0.01697209441329174
2.524,-0.016917402178136767
2.528,-0.01690151137926317
2.532,-0.016908386974539794
2.536,-0.016931778422806076
2.54,-0.016922787259752027
2.544,-0.016879105593256824
2.548,-0.01686333499709785
2.552,-0.016905381906674136
2.556,-0.01688922666182836
2.56,-0.016897833176195604
2.564,-0.016920912097403856
2.568,-0.01688191833677908
2.572,-0.016893289513582727
2.576,-0.016931249530861718
2.58,-0.016916248232076356
2.584,-0.016859897199459538
2.588,-0.016886221593962702
2.592,-0.016896703270678118
2.596,-0.01686374368632758
2.6,-0.016889947878116117
2.604,-0.016877591039052533
2.608,-0.016887423621108965
2.612,-0.016901439257634394
2.616,-0.01687182130875047
2.62,-0.01686085882117655
2.624,-0.016844222765472268
2.628,-0.01685597859096272
2.632,-0.01687643709299212
2.636,-0.016853838982642373
2.64,-0.016834318061787056
2.644,-0.01688425026944283
2.648,-0.016873480106212313
2.652,-0.016819148479201212
2.656,-0.01686237337538084
2.66,-0.016874585971186875
2.664,-0.01685232442843808
2.668,-0.016845400752075603
2.672,-0.016818090695312503
2.676,-0.016865234199988945
2.68,-0.016933004490495264
2.684,-0.016877879525567636
2.688,-0.016833789169842697
2.692,-0.016820350506347476
2.696,-0.01685607475313442
2.7,-0.01688855352662645
2.704,-0.01687410516032837
2.708,-0.01684496802230295
2.712,-0.01685213210409468
2.716,-0.016854512117844278
2.72,-0.016843164981583555
2.724,-0.01681977353331727
2.728,-0.016812128640667036
2.732,-0.016811022775692474
2.736,-0.01679871401771474
2.74,-0.01678251069178311
2.744,-0.016724548942790303
2.748,-0.016770225974348303
2.7520000000000002,-0.016849247238943647
2.7560000000000002,-0.01687191747092217
2.7600000000000002,-0.016823547898556536
2.7640000000000002,-0.016846867225194045
2.7680000000000002,-0.016860161645431717
2.7720000000000002,-0.01684806925234031
2.7760000000000002,-0.01681215268120996
2.7800000000000002,-0.016764720690018418
2.7840000000000003,-0.016751233945437344
2.7880000000000003,-0.016821624655122516
2.7920000000000003,-0.01685898365882838
2.7960000000000003,-0.01683448634558753
2.8000000000000003,-0.01681703291142379
2.8040000000000003,-0.016795781071477858
2.8080000000000003,-0.016761643500523983
2.8120000000000003,-0.01677303871787056
2.816,-0.01674414198527439
2.82,-0.016715557779736254
2.824,-0.01681159974872268
2.828,-0.01687227807906605
2.832,-0.016836337467392777
2.836,-0.016822946884983404
2.84,-0.016815975127535077
2.844,-0.016784722421732234
2.848,-0.016757724892027166
2.852,-0.016762653203326844
2.856,-0.01675659498650968
2.86,-0.016773303163842734
2.864,-0.016815326032876096
2.868,-0.016777125610167854
2.872,-0.016753469715929392
2.876,-0.016753854364616197
2.88,-0.016714043225531963
2.884,-0.016740656106550227
2.888,-0.016783087664813318
2.892,-0.01686085882117655
2.896,-0.016833356440070044
2.9,-0.016783207867527943
2.904,-0.016794506922702818
2.908,-0.0167792652184882
2.912,-0.016765105338705222
2.916,-0.016770754866292658
2.92,-0.016771980933981846
2.924,-0.016762388757354665
2.928,-0.016752796580727487
2.932,-0.016754070729502524
2.936,-0.016761595419438134
2.94,-0.016739910849719545
2.944,-0.016695580088565358
2.948,-0.016703224981215594
2.952,-0.016749334742546248
2.956,-0.016739646403747366
2.96,-0.016762557041155143
2.964,-0.01677561105596356
2.968,-0.016797848558169428
2.972,-0.016775370650534308
2.976,-0.01675907116243098
2.98,-0.01674221874184037
2.984,-0.01675688347302478
2.988,-0.016729188767574878
2.992,-0.01668444931719096
2.996,-0.016702407602756136
3.0,-0.016758686513744174
3.004,-0.016754767905247357
3.008,-0.016705797319308595
3.012,-0.016689618033919894
3.016,-0.01669161339898269
3.02,-0.016749094337116997
3.024,-0.016750464648063734
3.028,-0.01676286956821317
3.032,-0.01675135414815197
3.036,-0.016705821359851523
3.04,-0.016685146492935794
3.044,-0.016706061765280774
3.048,-0.016738853065830832
3.052,-0.01673070332177917
3.056,-0.016710773711694125
3.06,-0.01670502802193499
3.064,-0.016685651344337225
3.068,-0.016650143462436613
3.072,-0.01665680269282691
3.076,-0.016690170966407174
3.08,-0.016701470021582048
3.084,-0.0166697365049207
3.088,-0.016700123751178235
3.092,-0.01671704829339762
3.096,-0.016695435845307808
3.1,-0.01668055474923707
3.104,-0.016717841631314154
3.108,-0.01674546421513528
3.112,-0.01671476444181972
3.116,-0.01670594156256615
3.12,-0.016698296669915916
3.124,-0.016677862208429442
3.128,-0.016661995450098766
3.132,-0.016663269598873806
3.136,-0.016662884950187
3.14,-0.01664009451549385
3.144,-0.016642570691415153
3.148,-0.016649927097550286
3.152,-0.016685651344337225
3.156,-0.016612063242442993
3.16,-0.01665112912469655
3.164,-0.016733876673445305
3.168,-0.016697599494171083
3.172,-0.016649253962348377
3.176,-0.016632954474245048
3.18,-0.016661346355439786
3.184,-0.016689377628490643
3.188,-0.016675746640652016
3.192,-0.016656826733369837
3.196,-0.016657956638887323
3.2,-0.016645094948422305
3.204,-0.016639541583006567
3.208,-0.016650936800353146
3.212,-0.01664382079964727
3.216,-0.016646369097197345
3.22,-0.016626776054713254
3.224,-0.016608913931319785
3.228,-0.01661735216188655
3.232,-0.01663045425778082
3.236,-0.016624900892365083
3.24,-0.016625021095079708
3.244,-0.016569415319293575
3.248,-0.01659105180792631
3.2520000000000002,-0.01669822454828714
3.2560000000000002,-0.01668521861456457
3.2600000000000002,-0.016639205015405615
3.2640000000000002,-0.01662420371662025
3.2680000000000002,-0.016625862514082095
3.2720000000000002,-0.01663502196093662
3.2760000000000002,-0.01663033405506619
3.2800000000000002,-0.016623722905761744
3.2840000000000003,-0.016632257298500215
3.2880000000000003,-0.01662877141977605
3.2920000000000003,-0.016606029066168752
3.2960000000000003,-0.016598095687003416
3.3000000000000003,-0.016633771852704506
3.3040000000000003,-0.016627112622314207
3.3080000000000003,-0.016601797930613907
3.3120000000000003,-0.016607591701458892
3.3160000000000003,-0.01657020865721011
3.3200000000000003,-0.01660328844427527
3.3240000000000003,-0.01667264541061466
3.3280000000000003,-0.01665959139580624
3.332,-0.016617688729487504
3.336,-0.016600668025096417
3.34,-0.016616967513199746
3.344,-0.01660953898543584
3.348,-0.016596941740943002
3.352,-0.016589176645578144
3.356,-0.01658290206387465
3.36,-0.01657544949556782
3.364,-0.016551697439157655
3.368,-0.01655645746665686
3.372,-0.016613866283162387
3.376,-0.0166196840945503
3.38,-0.01648945647352415
3.384,-0.016516598246486772
3.388,-0.01669846495371639
3.392,-0.016627449189915162
3.396,-0.016608649485347605
3.4,-0.016626295243854748
3.404,-0.016608385039375426
3.408,-0.016573934941363524
3.412,-0.016558597074977206
3.416,-0.01659497041642313
3.42,-0.016584248334278462
3.424,-0.016570352900467662
3.428,-0.016588912199605964
3.432,-0.016585041672194996
3.436,-0.0165740070629923
3.44,-0.016565761156768936
3.444,-0.01653919635683652
3.448,-0.01647921520223799
3.452,-0.016500298758383443
3.456,-0.016654494800706084
3.46,-0.0166288195008619
3.464,-0.01659908134926335
3.468,-0.016531647626357986
3.472,-0.016586267739884187
3.476,-0.016631584163298307
3.48,-0.016574487873850807
3.484,-0.01653179186961554
3.488,-0.01657802183366082
3.492,-0.016602182579300708
3.496,-0.01657345413050502
3.5,-0.016566434291970845
3.504,-0.01655568816928325
3.508,-0.016548091357718866
3.512,-0.01654066282995496
3.516,-0.01654179273547245
3.52,-0.016543908303249873
3.524,-0.01653549411322603
3.528,-0.016540807073212514
3.532,-0.016523545963392172
3.536,-0.016530445599211723
3.54,-0.016573718576477197
3.544,-0.01657492060362346
3.548,-0.016555856453083728
3.552,-0.016570088454495483
3.556,-0.016564438926908048
3.56,-0.016543667897820618
3.564,-0.016550495412011392
3.568,-0.016598215889718042
3.572,-0.016575088887423938
3.576,-0.016556505547742708
3.58,-0.016547995195547165
3.584,-0.016532056315587716
3.588,-0.01652626254474273
3.592,-0.01652203140918788
3.596,-0.016507294556374695
3.6,-0.016490153649268983
3.604,-0.01649575509577057
3.608,-0.01648077783752813
3.612,-0.016527248207002663
3.616,-0.01650255856941842
3.62,-0.016467146849689505
3.624,-0.01651727138168868
3.628,-0.01655371684476338
3.632,-0.016545831546683893
3.636,-0.016508736988950213
3.64,-0.016538955951407266
3.644,-0.016554558263765763
3.648,-0.016519627354895355
3.652,-0.016504121204708563
3.656,-0.01649601954174275
3.66,-0.016495538730884243
3.664,-0.01649238941976103
3.668,-0.01648113844567201
3.672,-0.016458924984009065
3.676,-0.01643026865684215
3.68,-0.016419065763838978
3.684,-0.016508664867321436
3.688,-0.01651777623309011
3.692,-0.01650219796127454
3.696,-0.016501813312587734
3.7,-0.01652229585516006
3.704,-0.01651955523326658
3.708,-0.016466545836116373
3.712,-0.016498327433863574
3.716,-0.016541360005699793
3.72,-0.016485057054168827
3.724,-0.016453804348365984
3.728,-0.01645529486202735
3.732,-0.01648368674322209
3.736,-0.01644930876683896
3.74,-0.016430340778470925
3.744,-0.016445318036713365
3.748,-0.016421541939760278
3.7520000000000002,-0.016418440709722922
3.7560000000000002,-0.016461401159930368
3.7600000000000002,-0.01639117873404567
3.7640000000000002,-0.016400314140357274
3.7680000000000002,-0.016546336398085323
3.7720000000000002,-0.01653436420770854
3.7760000000000002,-0.016477003472288865
3.7800000000000002,-0.016475993769486004
3.7840000000000003,-0.016460703984185535
3.7880000000000003,-0.01646274743033418
3.7920000000000003,-0.016453131213164076
3.7960000000000003,-0.01644365923925152
3.8000000000000003,-0.016436567279088567
3.8040000000000003,-0.016468420998464545
3.8080000000000003,-0.016447529766662493
3.8120000000000003,-0.016417046358233257
3.8160000000000003,-0.016418584952980472
3.8200000000000003,-0.016459525997582197
3.8240000000000003,-0.016434139184253117
3.8280000000000003,-0.016384303138769048
3.8320000000000003,-0.016475729323513825
3.8360000000000003,-0.016505323231854826
3.84,-0.016442841860792062
3.844,-0.016428730062094932
3.848,-0.01645103968592958
3.852,-0.016425917318572677
3.856,-0.016393943396482077
3.86,-0.01646296379522051
3.864,-0.016453612024022582
3.868,-0.016431302400187937
3.872,-0.016446087334086975
3.876,-0.016450606956156924
3.88,-0.016410194803499555
3.884,-0.01636742667763551
3.888,-0.01643223998136202
3.892,-0.016445077631284114
3.896,-0.01643418726533897
3.9,-0.016410363087300033
3.904,-0.016408415803323084
3.908,-0.0163983428158374
3.912,-0.01638992862581356
3.916,-0.016446952793632286
3.92,-0.01646185793024595
3.924,-0.016418729196238022
3.928,-0.016408536006037713
3.932,-0.01638723608500593
3.936,-0.016350910824645855
3.94,-0.016398727464524206
3.944,-0.01645043867235645
3.948,-0.016463612889879492
3.952,-0.016455006375512247
3.956,-0.016409137019610845
3.96,-0.01646580057928569
3.964,-0.016447770172091744
3.968,-0.016427503994405745
3.972,-0.016417815655606863
3.976,-0.01640743014106315
3.98,-0.01641209400639065
3.984,-0.01641108430358779
3.988,-0.016399881410584616
3.992,-0.016400602626872374
3.996,-0.01638641870654647
4.0,-0.016360334717472558
4.0040000000000004,-0.016344371796970184
4.008,-0.016339251161327104
4.0120000000000005,-0.01639427996408303
4.016,-0.01647748428314737
4.0200000000000005,-0.016460102970612404
4.024,-0.01642250356147729
4.0280000000000005,-0.016426590453774585
4.032,-0.016392693288249962
4.0360000000000005,-0.016392789450421663
4.04,-0.016420339912614015
4.0440000000000005,-0.016362137758191952
4.048,-0.01633175051193442
4.0520000000000005,-0.01643048502172848
4.056,-0.016510540029669608
4.0600000000000005,-0.016454116875424012
4.064,-0.016416998277147404
4.0680000000000005,-0.016396083004802425
4.072,-0.016390866206987643
4.0760000000000005,-0.01637362913771023
4.08,-0.01636947012378416
4.0840000000000005,-0.016360719366159363
4.088,-0.016398030288779373
4.0920000000000005,-0.016382091408819924
4.096,-0.01634627099986128
4.1,-0.016354012054683214
4.104,-0.016373749340424855
4.108,-0.016292492305337466
4.112,-0.016396179166974126
4.116,-0.016497293690517785
4.12,-0.016432456346248348
4.124,-0.016381177868188764
4.128,-0.01639327026128017
4.132,-0.016410242884585407
4.136,-0.01638331747650911
4.14,-0.0163867312336045
4.144,-0.01640012181601387
4.148,-0.01638935165278335
4.152,-0.01638550516591531
4.156,-0.016374518637798464
4.16,-0.016356440149518668
4.164,-0.016327711700722978
4.168,-0.01631369606419755
4.172,-0.016338337620695944
4.176,-0.016423753669709405
4.18,-0.016405338613828653
4.184,-0.016340429147930442
4.188,-0.01633064464695986
4.192,-0.016397501396835015
4.196,-0.016353266797852532
4.2,-0.016397116748148213
4.204,-0.016434043022081415
4.208,-0.01636281089339386
4.212,-0.01633083697130326
4.216,-0.01634566998628815
4.22,-0.016406853168032944
4.224,-0.016415411601314336
4.228,-0.016415868371629918
4.232,-0.0163983428158374
4.236,-0.016386779314690347
4.24,-0.01637783623272215
4.244,-0.016374686921598942
4.248,-0.016344708364571137
4.252,-0.016333048701252385
4.256,-0.0163823558547921
4.26,-0.01637423015128336
4.264,-0.016343554418510726
4.268,-0.01635119931116096
4.272,-0.01634240047245031
4.276,-0.01633872226938275
4.28,-0.01629982467092967
4.284,-0.016360863609416916
4.288,-0.016426133683459004
4.292,-0.016410098641327853
4.296,-0.01640286243790735
4.3,-0.016409353384497172
4.304,-0.016364061001625976
4.308,-0.01632211025422139
4.312,-0.016344467959141885
4.316,-0.016359493298470175
4.32,-0.016362594528507534
4.324,-0.016341943702134733
4.328,-0.016301026698075934
4.332,-0.016329923430672102
4.336,-0.016354132257397843
4.34,-0.01628850157521187
4.344,-0.01634651140529053
4.348,-0.016393077936936767
4.352,-0.0163755043000584
4.356,-0.016371994380791313
4.36,-0.016353699527625186
4.364,-0.016300714171017906
4.368,-0.01633768852603696
4.372,-0.016323985416569563
4.376,-0.016311893023478154
4.38,-0.016329707065785775
4.384,-0.01630876775289787
4.388,-0.016277178479494073
4.392,-0.0162885256157548
4.396,-0.0162749186684591
4.4,-0.016263835978170552
4.404,-0.016332207282250003
4.408,-0.016328793525154615
4.412,-0.016311219888276246
4.416,-0.016371273164503555
4.42,-0.016364806258456658
4.424,-0.016317566591608514
4.428,-0.016353098514052054
4.432,-0.016326197146518687
4.436,-0.01630018527907355
4.44,-0.01630672430674922
4.444,-0.01629816587346783
4.448,-0.016275086952259574
4.452,-0.016256864220722225
4.456,-0.016275856249633184
4.46,-0.016299968914187224
4.464,-0.016325788457288958
4.468,-0.016342496634622013
4.472,-0.016304728941686424
4.476,-0.01627698615515067
4.48,-0.01627994314193048
4.484,-0.016276048573976586
4.488,-0.016271577032992486
4.492,-0.016308479266382767
4.496,-0.01631369606419755
4.5,-0.01625566219357596
4.5040000000000004,-0.01623195821825165
4.508,-0.01628999208887324
4.5120000000000005,-0.016280520114960687
4.516,-0.01627186551950759
4.5200000000000005,-0.016304728941686424
4.524,-0.016284030034227775
4.5280000000000005,-0.01627313966828263
4.532,-0.016266167910834302
4.5360000000000005,-0.016298863049212662
4.54,-0.016258739383070396
4.5440000000000005,-0.016230131136989328
4.548,-0.016279702736501225
4.5520000000000005,-0.01634886737849721
4.556,-0.016283164574682464
4.5600000000000005,-0.016259148072300125
4.564,-0.016269846113901868
4.5680000000000005,-0.01625080600390506
4.572,-0.016248450030698382
4.5760000000000005,-0.01623378529951397
4.58,-0.016254195720457523
4.5840000000000005,-0.016260927072476596
4.588,-0.016230708110019535
4.5920000000000005,-0.016165558238692073
4.596,-0.016212749824454364
4.6000000000000005,-0.016352184973420895
4.604,-0.01626003757238836
4.6080000000000005,-0.016205633823748487
4.612,-0.016302156603593423
4.616,-0.016288958345527453
4.62,-0.016258234531668966
4.624,-0.016281842344821575
4.628,-0.016226260609578363
4.632,-0.0162343863130871
4.636,-0.016237848151268337
4.64,-0.016192555768397142
4.644,-0.016180775902363765
4.648,-0.0162682594380688
4.652,-0.016247103760294566
4.656,-0.016184430064888403
4.66,-0.016226140406863737
4.664,-0.01631023422601631
4.668,-0.01627994314193048
4.672,-0.016224265244515566
4.676,-0.016231381245221443
4.68,-0.016244146773514757
4.684,-0.016221981392937665
4.688,-0.016203975026286642
4.692,-0.016267586302866895
4.696,-0.016208590810528292
4.7,-0.016181376915936897
4.704,-0.016209191824101424
4.708,-0.016229554163959124
4.712,-0.016222702609225422
4.716,-0.01618171348353785
4.72,-0.01626953358684384
4.724,-0.01624068493533352
4.728,-0.01618363672697187
4.732,-0.016233136204854986
4.736,-0.016254123598828746
4.74,-0.01624287262473972
4.744,-0.01623630955652112
4.748,-0.01620835040509904
4.752,-0.016188276551756448
4.756,-0.01618943049781686
4.76,-0.016211740121651504
4.764,-0.0162044077560593
4.768,-0.01615887496775885
4.772,-0.01615385049428747
4.776,-0.016217678135754043
4.78,-0.016220466838733374
4.784,-0.01623135720467852
4.788,-0.016168395022757253
4.792,-0.016187459173296986
4.796,-0.016227150109666598
4.8,-0.016244098692428908
4.804,-0.016204215431715897
4.808,-0.016219360973758812
4.812,-0.01625876342361332
4.816,-0.016209384148444826
4.82,-0.016208422526727818
4.824,-0.016229458001787423
4.828,-0.016212749824454364
4.832,-0.016178660334586342
4.836,-0.016186401389408276
4.84,-0.016236670164665002
4.844,-0.016205609783205562
4.848,-0.016203013404569633
4.852,-0.01621200456762368
4.856,-0.01617012594184787
4.86,-0.01613536331677794
4.864,-0.016162961860056144
4.868,-0.016308695631269094
4.872,-0.01626465335663001
4.876,-0.016192291322424966
4.88,-0.016190247876276317
4.884,-0.01621287002716899
4.888,-0.01620505685071828
4.892,-0.016202244107196024
4.896,-0.016224577771573594
4.9,-0.016193301025227827
4.904,-0.01618784382198379
4.908,-0.01614663833140989
4.912,-0.016160870332821646
4.916,-0.016158033548756466
4.92,-0.01610923124661818
4.924,-0.016153730291572844
4.928,-0.016243545759941625
4.932,-0.016221620784793785
4.936,-0.016188468876099846
4.94,-0.016203614418142765
4.944,-0.016213086392055317
4.948,-0.016220755325248477
4.952,-0.016203253809998885
4.956,-0.016176087996493338
4.96,-0.01621688479783751
4.964,-0.016228231934098232
4.968,-0.01619053636279142
4.972,-0.016149090466788266
4.976,-0.016167938252441675
4.98,-0.016202508553168203
4.984,-0.0161772900236396
4.988,-0.01616536591434867
4.992,-0.01614024354699177
4.996,-0.016125819221236612
5.0,-0.01615344180505774
5.0040000000000004,-0.016141950425539463
5.008,-0.016108750435759676
5.0120000000000005,-0.016218014703354995
5.016,-0.016258042207325563
5.0200000000000005,-0.016232943880511583
5.024,-0.01619926307987329
5.0280000000000005,-0.01618180964570955
5.032,-0.01617536678020558
5.0360000000000005,-0.016194767498346266
5.04,-0.01620890333758632
5.0440000000000005,-0.01619693114720954
5.048,-0.016173106969170604
5.0520000000000005,-0.016138849195502104
5.056,-0.016142238912054567
5.0600000000000005,-0.016177121739839123
5.064,-0.016121227477537886
5.0680000000000005,-0.016136300897952028
5.072,-0.016185439767691264
5.0760000000000005,-0.016100768975508488
5.08,-0.016166712184752484
5.0840000000000005,-0.016223303622798554
5.088,-0.01618967090324611
5.0920000000000005,-0.01615267250768413
5.096,-0.016149523196560923
5.1000000000000005,-0.01615810567038524
5.104,-0.01613521907352039
5.1080000000000005,-0.01617911710490192
5.112,-0.016187819781440866
5.1160000000000005,-0.016156254548579996
5.12,-0.016134233411260454
5.124,-0.016081248054653174
5.128,-0.016146397925980636
5.132,-0.016156711318895574
5.136,-0.0161841415783733
5.14,-0.016169044117416237
5.144,-0.016160173157076813
5.148,-0.01612444891028987
5.152,-0.016138248181928973
5.156,-0.01618308379448459
5.16,-0.016188228470670595
5.164,-0.016169044117416237
5.168,-0.016162961860056144
5.172,-0.016141685979567284
5.176,-0.016110890044080024
5.18,-0.01612906469453152
5.184,-0.01614668641249574
5.188,-0.016142046587711165
5.192,-0.016110313071049816
5.196,-0.016083339581887672
5.2,-0.01618784382198379
5.204,-0.016191690308851835
5.208,-0.01618618502452195
5.212,-0.016130026316248533
5.216,-0.016115145220177794
5.22,-0.01613411320854583
5.224,-0.01617240979342577
5.228,-0.01617902094273022
5.232,-0.016175655266720684
5.236,-0.016146926817924994
5.24,-0.016128127113357437
5.244,-0.016126420234809744
5.248,-0.016106634867982254
5.252,-0.01613178127588208
5.256,-0.01615983658947586
5.26,-0.016151999372482222
5.264,-0.016126828924039473
5.268,-0.016123559410201636
5.272,-0.016118390693472706
5.276,-0.016139450209075236
5.28,-0.016155749697178565
5.284,-0.016122141018169046
5.288,-0.016175150415319254
5.292,-0.016224505649944817
5.296,-0.01614098880382245
5.3,-0.01614101284436538
5.304,-0.016180992267250092
5.308,-0.01616668814420956
5.312,-0.016148393291043433
5.316,-0.01614572479077873
5.32,-0.016132718857056163
5.324,-0.016125194167120556
5.328,-0.016108485989787497
5.332,-0.016049009686590395
5.336,-0.016088147690472725
5.34,-0.01611690017981134
5.344,-0.01615897112993055
5.348,-0.01612425658594647
5.352,-0.0161476961152986
5.356,-0.016189718984331962
5.36,-0.016122357383055372
5.364,-0.016151783007595896
5.368,-0.016138656871158702
5.372,-0.016119208071932165
5.376,-0.016144979533948046
5.38,-0.016178588212957565
5.384,-0.016147720155841528
5.388,-0.0161249537616913
5.392,-0.016092402866570495
5.396,-0.016098725529359842
5.4,-0.01605944328221996
5.404,-0.016087306271470342
5.408,-0.016120289896363802
5.412,-0.016158177792014016
5.416,-0.01613663746555298
5.42,-0.016066511201839988
5.424,-0.016140435871335172
5.428,-0.01613887323604503
5.432,-0.01614038779024932
5.436,-0.016140075263191292
5.44,-0.016109375489875732
5.444,-0.016110721760279546
5.448,-0.01611754927447032
5.452,-0.016165486117063296
5.456,-0.01613074753253629
5.46,-0.016125747099607835
5.464,-0.016130050356791457
5.468,-0.016072401134856678
5.472,-0.016055644876437767
5.476,-0.016107548408613413
5.48,-0.01608766687961422
5.484,-0.016125194167120556
5.488,-0.016118510896187332
5.492,-0.016069347985905168
5.496,-0.016125699018521986
5.5,-0.016160678008478244
5.5040000000000004,-0.016168779671444058
5.508,-0.016129665708104653
5.5120000000000005,-0.01608817173101565
5.516,-0.016110817922451247
5.5200000000000005,-0.01614409003385981
5.524,-0.01613269481651324
5.5280000000000005,-0.016108966800646003
5.532,-0.016092955799057777
5.5360000000000005,-0.01607305022951566
5.54,-0.01601107370985433
5.5440000000000005,-0.01608552727129387
5.548,-0.016134425735603856
5.5520000000000005,-0.016075454283808185
5.556,-0.016029729171164332
5.5600000000000005,-0.016077641973214384
5.564,-0.016120626463964755
5.5680000000000005,-0.016116876139268415
5.572,-0.016068314242559383
5.5760000000000005,-0.016080839365423445
5.58,-0.01611141893602438
5.5840000000000005,-0.01607163183748307
5.588,-0.016045595929495008
5.5920000000000005,-0.016093003880143626
5.596,-0.016151181994022764
5.6000000000000005,-0.01611379894977398
5.604,-0.016092955799057777
5.6080000000000005,-0.01609593682638051
5.612,-0.01609247498819927
5.6160000000000005,-0.01605035595699421
5.62,-0.01604766341618658
5.6240000000000006,-0.016119712923333595
5.628,-0.016044369861805817
5.632,-0.01603725386109994
5.636,-0.016133151586828817
5.64,-0.016105456881378915
5.644,-0.0160881236499298
5.648,-0.016056318011639675
5.652,-0.01608309917645842
5.656,-0.016093941461317714
5.66,-0.016159596184046606
5.664,-0.016172001104196043
5.668,-0.016118078166414678
5.672,-0.016092859636886076
5.676,-0.016093845299146013
5.68,-0.01609110467725253
5.684,-0.01607949309501963
5.688,-0.016080502797822492
5.692,-0.016078002581358265
5.696,-0.01605812105235907
5.7,-0.016019584062049872
5.704,-0.016024223886834447
5.708,-0.01607634378389642
5.712,-0.01606482836383522
5.716,-0.01603963387484954
5.72,-0.0160791805679616
5.724,-0.016072761743000555
5.728,-0.016109207206075254
5.732,-0.016115866436465554
5.736,-0.016063794620489433
5.74,-0.0160586259037605
5.744,-0.01606862676961741
5.748,-0.01612557881580736
5.752,-0.016108630233045047
5.756,-0.016049153929847945
5.76,-0.01602054568376688
5.764,-0.016096273393981463
5.768,-0.016100985340394815
5.772,-0.016037806793587222
5.776,-0.016014223020977537
5.78,-0.01605944328221996
5.784,-0.016095768542580033
5.788,-0.016075454283808185
5.792,-0.01607752177049976
5.796,-0.016056534376526002
5.8,-0.01604699028098467
5.804,-0.016062664714971947
5.808,-0.016062448350085617
5.812,-0.016081248054653174
5.816,-0.01608858042024538
5.82,-0.016051894551741427
5.824,-0.016046653713383718
5.828,-0.016084854136091963
5.832,-0.0161361806952374
5.836,-0.016076271662267643
5.84,-0.016007347425700914
5.844,-0.01604674987555542
5.848,-0.016043023591402004
5.852,-0.01609264327199975
5.856,-0.016138440506272375
5.86,-0.016152696548227055
5.864,-0.01608908527164681
5.868,-0.01607557448652281
5.872,-0.016095119447921052
5.876,-0.01607574277032329
5.88,-0.016056726700869405
5.884,-0.01606415522863331
5.888,-0.016085503230750947
5.892,-0.016062448350085617
5.896,-0.016042206212942545
5.9,-0.016066679485640466
5.904,-0.016054851538521236
5.908,-0.016027493400672284
5.912,-0.015944192919436245
5.916,-0.015946885460243875
5.92,-0.016135579681664267
5.924,-0.016046629672840793
5.928,-0.016028695427818547
5.932,-0.016089662244677016
5.936,-0.016094879042491798
5.94,-0.01608648889301088
5.944,-0.016092426907113423
5.948,-0.01609908613750372
5.952,-0.016066871809983868
5.956,-0.01606374653940358
5.96,-0.01606487644492107
5.964,-0.016062472390628545
5.968,-0.016061029958053027
5.972,-0.016078819959817723
5.976,-0.01606066934990915
5.98,-0.0160128527100308
5.984,-0.01597147893565642
5.988,-0.016006890655385332
5.992,-0.016066318877496585
5.996,-0.01614048395242102
6.0,-0.016089349717618988
6.0040000000000004,-0.016073891648518045
6.008,-0.016069708594049048
6.0120000000000005,-0.016062352187913916
6.016,-0.016045307442979904
6.0200000000000005,-0.01604670179446957
6.024,-0.016077954500272412
6.0280000000000005,-0.016075646608151587
6.032,-0.01607785833810071
6.0360000000000005,-0.016024728738235877
6.04,-0.016043720767146837
6.0440000000000005,-0.0161109621657088
6.048,-0.016114904814748542
6.0520000000000005,-0.016042254294028394
6.056,-0.01600299608743144
6.0600000000000005,-0.01604569209166671
6.064,-0.016096513799410715
6.0680000000000005,-0.016083579987316923
6.072,-0.016045283402436977
6.0760000000000005,-0.016042110050770844
6.08,-0.016053937997890073
6.0840000000000005,-0.01601234785862937
6.088,-0.01605619780892505
6.0920000000000005,-0.016055091943950488
6.096,-0.016063337850173852
6.1000000000000005,-0.016010376534109496
6.104,-0.016044393902348745
6.1080000000000005,-0.016094782880320097
6.112,-0.016065405336865426
6.1160000000000005,-0.01608858042024538
6.12,-0.016060332782308194
6.1240000000000006,-0.01596037220482495
6.128,-0.01602323822457451
6.132000000000001,-0.016127694383584783
6.136,-0.016074853270235053
6.140000000000001,-0.016035955671781975
6.144,-0.016029849373878958
6.148,-0.016016122223868633
6.152,-0.016025498035609487
6.156,-0.016037374063814565
6.16,-0.016005760749867846
6.164,-0.016028599265646846
6.168,-0.016077954500272412
6.172,-0.016046269064696913
6.176,-0.01599143258628439
6.18,-0.015993067343203306
6.184,-0.016056173768382125
6.188,-0.01604095610471043
6.192,-0.016028334819674667
6.196,-0.01602660390058405
6.2,-0.015987297612901245
6.204,-0.016075358121636484
6.208,-0.016105024151606258
6.212,-0.01609752350221358
6.216,-0.016045042997007725
6.22,-0.01605619780892505
6.224,-0.016115193301263646
6.228,-0.01606999708056415
6.232,-0.01604876928116114
6.236,-0.016029849373878958
6.24,-0.0160312196848257
6.244,-0.016046148861982287
6.248,-0.016022108319057024
6.252,-0.0160061934796405
6.256,-0.01599893323567707
6.26,-0.01600645792561268
6.264,-0.01598304243680347
6.268,-0.01603811932064525
6.272,-0.01614546034480655
6.276,-0.016087186068755713
6.28,-0.016050572321880535
6.284,-0.016007852277102344
6.288,-0.01600922258804908
6.292,-0.016061943498684186
6.296,-0.01603684517187021
6.3,-0.016002611438744634
6.304,-0.016058169133444922
6.308,-0.0160335035364036
6.312,-0.016010520777367046
6.316,-0.01600852541230425
6.32,-0.015994077046006167
6.324,-0.015998764951876594
6.328,-0.015961045340026854
6.332,-0.015964891826894898
6.336,-0.01596554092155388
6.34,-0.015971671259999824
6.344,-0.016136108573608626
6.348,-0.016120073531477475
6.352,-0.01604319187520248
6.356,-0.016021002454082462
6.36,-0.016029921495507735
6.364,-0.016024368130092
6.368,-0.01600268356037341
6.372,-0.016016122223868633
6.376,-0.01601898304847674
6.38,-0.01602395944086227
6.384,-0.016007539750044316
6.388,-0.01600092860073987
6.392,-0.01600513569575179
6.396,-0.016018093548388505
6.4,-0.015973281976375816
6.404,-0.01601025633139487
6.408,-0.016040787820909955
6.412,-0.01595878552899188
6.416,-0.015981335558255778
6.42,-0.015980277774367065
6.424,-0.016020329318880554
6.428,-0.01602004083236545
6.432,-0.016028286738588818
6.436,-0.016023045900231108
6.44,-0.016034296874320134
6.444,-0.016024945103122204
6.448,-0.01602821461696004
6.452,-0.016017276169929047
6.456,-0.016026123089725543
6.46,-0.016037422144900417
6.464,-0.01602852714401807
6.468,-0.016010015925965616
6.472,-0.015992634613430652
6.476,-0.0159879226670173
6.48,-0.0159992457627351
6.484,-0.015981864450200133
6.488,-0.01593183608037266
6.492,-0.015986624477699336
6.496,-0.01597482057112303
6.5,-0.015973931071034796
6.5040000000000004,-0.016049153929847945
6.508,-0.01605744791715716
6.5120000000000005,-0.016022444886657976
6.516,-0.015987850545388524
6.5200000000000005,-0.015968209421818584
6.524,-0.01601679535907054
6.5280000000000005,-0.016007900358188193
6.532,-0.016015857777896457
6.5360000000000005,-0.01602725299524303
6.54,-0.01600001506010871
6.5440000000000005,-0.01600573670932492
6.548,-0.01601665111581299
6.5520000000000005,-0.015988691964390907
6.556,-0.015992514410716027
6.5600000000000005,-0.015975277341438613
6.564,-0.01597070963828281
6.5680000000000005,-0.015931307188428306
6.572,-0.015926162512242298
6.5760000000000005,-0.015965060110695376
6.58,-0.01598705720747199
6.5840000000000005,-0.016003404776661168
6.588,-0.01608466181174856
6.5920000000000005,-0.01605747195770009
6.596,-0.016000832438568167
6.6000000000000005,-0.01604360056443221
6.604,-0.01604299955085908
6.6080000000000005,-0.016019511940421095
6.612,-0.016015953940068158
6.6160000000000005,-0.0159949665460944
6.62,-0.015995591600210458
6.6240000000000006,-0.015981143233912375
6.628,-0.01595472267723751
6.632000000000001,-0.01594525070332496
6.636,-0.015951765690457705
6.640000000000001,-0.01599975061413653
6.644,-0.015950251136253413
6.648000000000001,-0.015952631150003012
6.652,-0.0159583287586763
6.656000000000001,-0.01598321072060395
6.66,-0.01603999448299342
6.664,-0.01605893843081853
6.668,-0.016021507305483892
6.672,-0.01601157856125576
6.676,-0.016030786955053045
6.68,-0.01600049587096721
6.684,-0.0159443371626938
6.688,-0.015939216527050718
6.692,-0.01599792353287421
6.696,-0.01600965531782174
6.7,-0.016071439513139666
6.704,-0.016057327714442536
6.708,-0.015957559461302694
6.712,-0.0159926826945165
6.716,-0.016075766810866213
6.72,-0.016035546982552246
6.724,-0.015995711802925087
6.728,-0.016003212452317766
6.732,-0.016001962344085654
6.736,-0.015971454895113493
6.74,-0.015980806666311423
6.744,-0.015965108191781225
6.748,-0.01597371470614847
6.752,-0.01599883707350537
6.756,-0.015977032301072155
6.76,-0.01590503087501099
6.764,-0.015926643323100804
6.768,-0.015968353665076134
6.772,-0.016015617372467202
6.776,-0.01603674900969851
6.78,-0.0159900141942518
6.784,-0.01601386241283366
6.788,-0.01598482143697994
6.792,-0.015951260839056274
6.796,-0.015993572194604736
6.8,-0.01603989832082172
6.804,-0.015971839543800298
6.808,-0.015932268810145315
6.812,-0.016015497169752577
6.816,-0.01601217957482889
6.82,-0.016018406075446533
6.824,-0.01601131411528358
6.828,-0.015979436355364682
6.832,-0.015927003931244684
6.836,-0.01594702970350143
6.84,-0.015984004058520483
6.844,-0.015967632448788377
6.848,-0.015929840715309864
6.852,-0.01595539581243942
6.856,-0.016029320481934603
6.86,-0.01600039970879551
6.864,-0.01596686315141477
6.868,-0.01595666996121446
6.872,-0.015960035637223993
6.876,-0.016035114252779592
6.88,-0.015996433019212844
6.884,-0.015950780028197768
6.888,-0.015955684298954522
6.892,-0.016028334819674667
6.896,-0.015995447356952908
6.9,-0.015969026800278042
6.904,-0.0159790757472208
6.908,-0.015969026800278042
6.912,-0.015924599876952158
6.916,-0.015902626820718465
6.92,-0.01599691383007135
6.924,-0.015955924704383773
6.928,-0.015956477636871056
6.932,-0.015956117028727176
6.936,-0.015893852022550746
6.94,-0.015904574104695413
6.944,-0.016067689188443326
6.948,-0.016061366525653983
6.952,-0.016002563357658785
6.956,-0.015975830273925892
6.96,-0.015999269803278024
6.964,-0.015957078650444188
6.968,-0.015939168445964866
6.972,-0.015970397111224784
6.976,-0.015976767855099976
6.98,-0.01599720231658645
6.984,-0.015965516881010954
6.988,-0.01592147460637187
6.992,-0.015971599138371047
6.996,-0.015934095891407634
7.0,-0.01587500423689734
7.0040000000000004,-0.015931427391142932
7.008,-0.016007419547329687
7.0120000000000005,-0.015980998990654825
7.016,-0.01602696450872793
7.0200000000000005,-0.015983162639518097
7.024,-0.015860555870599254
7.0280000000000005,-0.015907507050932294
7.032,-0.01604598057818181
7.0360000000000005,-0.015969147002992668
7.04,-0.015941091689398886
7.0440000000000005,-0.015925825944641345
7.048,-0.015910896767484757
7.0520000000000005,-0.01591342102449191
7.056,-0.01601049673682412
7.0600000000000005,-0.015970541354482334
7.064,-0.015994437654150047
7.0680000000000005,-0.01597924403102128
7.072,-0.01598371557200538
7.0760000000000005,-0.01597046923285356
7.08,-0.01595859320464848
7.0840000000000005,-0.01592452775532338
7.088,-0.015867455506418805
7.0920000000000005,-0.01596010775885277
7.096,-0.016018742643047486
7.1000000000000005,-0.01593210052634484
7.104,-0.01586632560090132
7.1080000000000005,-0.015779803686913296
7.112,-0.01599395684329154
7.1160000000000005,-0.01608610424432408
7.12,-0.015930585972140546
7.1240000000000006,-0.01594803940630429
7.128,-0.016016530913098362
7.132000000000001,-0.015951669528286003
7.136,-0.015969796097651652
7.140000000000001,-0.01594864041987742
7.144,-0.015936043175384582
7.148000000000001,-0.015939625216280447
7.152,-0.015931451431685856
7.156000000000001,-0.015941356135371065
7.16,-0.015956020866555475
7.164000000000001,-0.01593325447240525
7.168,-0.01586555630352771
7.172,-0.01586769591184806
7.176,-0.01593005708019619
7.18,-0.015927749188075366
7.184,-0.01600167385757055
7.188,-0.01600780419601649
7.192,-0.015945827676355166
7.196,-0.015872672304233587
7.2,-0.015962728178031623
7.204,-0.015954698636694586
7.208,-0.015899285185251855
7.212,-0.01597806604441794
7.216,-0.016020930332453685
7.22,-0.015908925442964884
7.224,-0.015882240440317844
7.228,-0.01595046750113974
7.232,-0.01590291530723357
7.236,-0.01589688113095933
7.24,-0.015931186985713677
7.244,-0.015965372637753404
7.248,-0.01600888602044813
7.252,-0.015961357867084885
7.256,-0.015907963821247876
7.26,-0.01594397655454992
7.264,-0.01594306301391876
7.268,-0.015907963821247876
7.272,-0.015938399148591256
7.276,-0.01594128401374229
7.28,-0.015925224931068214
7.284,-0.0158851493460118
7.288,-0.015867287222618327
7.292,-0.01594801536576136
7.296,-0.016033215049888496
7.3,-0.016017348291557824
7.304,-0.015986985085843213
7.308,-0.015961766556314615
7.312,-0.015940490675825755
7.316,-0.015903131672119895
7.32,-0.015868729655193845
7.324,-0.015888611184193036
7.328,-0.01595700652881541
7.332,-0.01592575382301257
7.336,-0.01586971531745378
7.34,-0.01591315657851973
7.344,-0.015980998990654825
7.348,-0.016013381601975154
7.352,-0.015988139031903627
7.356,-0.015986167707383755
7.36,-0.015959819272337666
7.364,-0.015945322824953735
7.368,-0.015971671259999824
7.372,-0.015961069380569782
7.376,-0.015942990892289982
7.38,-0.015897602347247086
7.384,-0.015891111400657264
7.388,-0.01588464449461037
7.392,-0.01584372749055157
7.396,-0.01595645359632813
7.4,-0.016061510768911533
7.404,-0.01599939000599265
7.408,-0.015949986690281234
7.412,-0.015969555692222397
7.416,-0.01592964839096646
7.42,-0.015901977726059485
7.424,-0.015924311390437054
7.428,-0.015982970315174694
7.432,-0.015970541354482334
7.436,-0.015955059244838466
7.44,-0.015929696472052314
7.444,-0.01583901554413822
7.448,-0.015808892743852863
7.452,-0.015978811301248626
7.456,-0.015977609274102363
7.46,-0.015990831572711257
7.464,-0.016044345821262893
7.468,-0.015966935273043544
7.472,-0.015920657227912412
7.476,-0.015911041010742307
7.48,-0.015868224803792415
7.484,-0.01591325274069143
7.488,-0.01590082377999907
7.492,-0.01600729934461506
7.496,-0.01602821461696004
7.5,-0.01598938914013574
7.5040000000000004,-0.01596354555649108
7.508,-0.015918012768190635
7.5120000000000005,-0.01592534513378284
7.516,-0.015962607975316997
7.5200000000000005,-0.015962463732059447
7.524,-0.015929359904451358
7.5280000000000005,-0.015904958753382218
7.532,-0.015971551057285194
7.5360000000000005,-0.015937918337732754
7.54,-0.015923542093063445
7.5440000000000005,-0.015998404343732713
7.548,-0.015926162512242298
7.5520000000000005,-0.01588935644102372
7.556,-0.016039754077564167
7.5600000000000005,-0.01602131498114049
7.564,-0.015991504707913166
7.5680000000000005,-0.015953039839232745
7.572,-0.01593928864867949
7.5760000000000005,-0.015937293283616694
7.58,-0.015915921240956137
7.5840000000000005,-0.015882312561946617
7.588,-0.015863152249235183
7.5920000000000005,-0.015978450693104745
7.596,-0.016001649817027626
7.6000000000000005,-0.01598477335589409
7.604,-0.01591630588964294
7.6080000000000005,-0.0158829616566056
7.612,-0.016025714400495814
7.6160000000000005,-0.01597893150396325
7.62,-0.01594589979798394
7.6240000000000006,-0.0159696518543941
7.628,-0.015971238530227166
7.632000000000001,-0.01598847559950458
7.636,-0.01596294454291795
7.640000000000001,-0.015936331661899686
7.644,-0.01589808315810559
7.648000000000001,-0.01585002611279799
7.652,-0.01583915978739577
7.656000000000001,-0.015904670266867114
7.66,-0.015949121230735924
7.664000000000001,-0.015973594503433844
7.668,-0.015940947446141336
7.672000000000001,-0.015841732125488773
7.676,-0.015973666625062617
7.68,-0.01598513396403797
7.684,-0.01591971964673833
7.688,-0.01594390443292114
7.692,-0.01593645186461431
7.696,-0.015920272579225608
7.7,-0.015980277774367065
7.704,-0.015927653025903665
7.708,-0.015897049414759806
7.712,-0.016053216781602316
7.716,-0.015944265041065022
7.72,-0.01586127708688701
7.724,-0.01591108909182816
7.728,-0.01592068126845534
7.732,-0.015815167325556358
7.736,-0.015845939220500694
7.74,-0.015953785096063426
7.744,-0.016053841835718372
7.748,-0.016037975077387696
7.752,-0.015935538323983152
7.756,-0.015947582635988708
7.76,-0.015933446796748654
7.764,-0.015960444326453722
7.768,-0.01601191512885671
7.772,-0.015986840842585663
7.776,-0.015967103556844022
7.78,-0.015955852582755
7.784,-0.015937653891760575
7.788,-0.015982513544859116
7.792,-0.015991600870084867
7.796,-0.015967295881187425
7.8,-0.01597330601691874
7.804,-0.015927749188075366
7.808,-0.01588661581913024
7.812,-0.015937846216103977
7.816,-0.016047879781072905
7.82,-0.01602040144050933
7.824,-0.0158758216153568
7.828,-0.01591955136293785
7.832,-0.016096802285925818
7.836,-0.01604771149727243
7.84,-0.01593356699946328
7.844,-0.0159239748228361
7.848,-0.016041292672311386
7.852,-0.016029608968449707
7.856,-0.016039104982905186
7.86,-0.015983980017977555
7.864,-0.015956838245014933
7.868,-0.015903900969493505
7.872,-0.015910848686398905
7.876,-0.01602963300899263
7.88,-0.016041100347967983
7.884,-0.0159877303426739
7.888,-0.015963906164634962
7.892,-0.015916089524756614
7.896,-0.015860243343541226
7.9,-0.015846997004389404
7.904,-0.015984701234265316
7.908,-0.016084084838718354
7.912,-0.016019584062049872
7.916,-0.015975926436097593
7.92,-0.015979917166223188
7.924,-0.015963497475405233
7.928,-0.015949626082137354
7.932,-0.015941043608313037
7.936,-0.015933278512948176
7.94,-0.015895991630871093
7.944,-0.01582093705585842
7.948,-0.015901280550314652
7.952,-0.0160677613100721
7.956,-0.016058265295616624
7.96,-0.01598910065362064
7.964,-0.015899237104166002
7.968,-0.01588351458909288
7.972,-0.015953953379863904
7.976,-0.015957583501845618
7.98,-0.015867912276734387
7.984,-0.0159329179048043
7.988,-0.01605898651190438
7.992,-0.01599212976202922
7.996,-0.015992249964743847
8.0,-0.01590327591537745
8.004,-0.015883538629635808
8.008000000000001,-0.01591164202431544
8.012,-0.015985302247838448
8.016,-0.01604182156425574
8.02,-0.0160219881163424
8.024000000000001,-0.015974508044065003
8.028,-0.015902939347776493
8.032,-0.015786342714588966
8.036,-0.015912411321689048
8.040000000000001,-0.0160357873879815
8.044,-0.015943087054461683
8.048,-0.015876230304586528
8.052,-0.015856348775587333
8.056000000000001,-0.015963184948347205
8.06,-0.015956309353070578
8.064,-0.01584269374720578
8.068,-0.016094350150547443
8.072000000000001,-0.016107933057300215
8.076,-0.01595493904212384
8.08,-0.01580600787870183
8.084,-0.01590916584839414
8.088000000000001,-0.016025137427465606
8.092,-0.016027733806101535
8.096,-0.015970493273396485
8.1,-0.015947654757617485
8.104000000000001,-0.015913396983948985
8.108,-0.015858873032594485
8.112,-0.01584250142286238
8.116,-0.01576881715879645
8.120000000000001,-0.015848054788278117
8.124,-0.01598422042340681
8.128,-0.015933134269690626
8.132,-0.015765187036814735
8.136000000000001,-0.015634454564387147
8.14,-0.015683401109782988
8.144,-0.015929624350423537
8.148,-0.016109615895304984
8.152000000000001,-0.01601806950784558
8.156,-0.015886135008271737
8.16,-0.015896424360643747
8.164,-0.015853199464464122
8.168000000000001,-0.015800430472743168
8.172,-0.01593686055384404
8.176,-0.016005063574123013
8.18,-0.01593128314788538
8.184000000000001,-0.015900198725883014
8.188,-0.015870869263514192
8.192,-0.015848607720765396
8.196,-0.015878105466934696
8.2,-0.015880389318512596
8.204,-0.015818484920480044
8.208,-0.01569794563825277
8.212,-0.015708595598768665
8.216,-0.01577206263209136
8.22,-0.015933735283263757
8.224,-0.016046725835012494
8.228,-0.016039249226162736
8.232,-0.015935730648326554
8.236,-0.015755234252043674
8.24,-0.015837621192648553
8.244,-0.015960804934597603
8.248,-0.015980566260882168
8.252,-0.0160128527100308
8.256,-0.015969315286793146
8.26,-0.015925104728353588
8.264,-0.01588793804899113
8.268,-0.015842405260690678
8.272,-0.015861830019374294
8.276,-0.01599335582971841
8.28,-0.015957030569358335
8.284,-0.015906232902157254
8.288,-0.01583218802994744
8.292,-0.015855988167443456
8.296,-0.015942846649032432
8.3,-0.015907795537447398
8.304,-0.015832476516462544
8.308,-0.015744223683383903
8.312,-0.01585432936998161
8.316,-0.015972079949229553
8.32,-0.015935562364526076
8.324,-0.015907651294189844
8.328,-0.016108990841188928
8.332,-0.015975205219809836
8.336,-0.015934865188781244
8.34,-0.015904742388495888
8.344,-0.016045740172752558
8.348,-0.016086777379525984
8.352,-0.01598280203137422
8.356,-0.01594270240577488
8.36,-0.015923469971434668
8.364,-0.01591738771407458
8.368,-0.015916930943758997
8.372,-0.015915416389554706
8.376,-0.015905728050755824
8.38,-0.01584579497724314
8.384,-0.01573169856051984
8.388,-0.015844304463581774
8.392,-0.01593878379727806
8.396,-0.015947991325218437
8.4,-0.01589149604934407
8.404,-0.0158599308164832
8.408,-0.015862022343717697
8.412,-0.01592443159315168
8.416,-0.015928758890878227
8.42,-0.015890606549255833
8.424,-0.015996024329983115
8.428,-0.015978114125503793
8.432,-0.015914502848923547
8.436,-0.015899429428509405
8.44,-0.015774418605298036
8.444,-0.015669024865113682
8.448,-0.015891664333144546
8.452,-0.015996433019212844
8.456,-0.01589519829295456
8.46,-0.015647051808879986
8.464,-0.015442106180442115
8.468,-0.015850506923656492
8.472,-0.016111803584711183
8.476,-0.015919431160223225
8.48,-0.015769538375084206
8.484,-0.015491894144840337
8.488,-0.01556983358500404
8.492,-0.01597143085457057
8.496,-0.01582098513694427
8.5,-0.01568491566398728
8.504,-0.015460040425464363
8.508000000000001,-0.015521512093724262
8.512,-0.015787809187707405
8.516,-0.0158010314863163
8.52,-0.015629333928744066
8.524000000000001,-0.015496005077680557
8.528,-0.015526608688824417
8.532,-0.015862334870775725
8.536,-0.015832668840805947
8.540000000000001,-0.015649407782086663
8.544,-0.015453477357245764
8.548,-0.015504395227161474
8.552,-0.01578865060670979
8.556000000000001,-0.015731938965949096
8.56,-0.015599571736602591
8.564,-0.015352531117502583
8.568,-0.015350151103752983
8.572000000000001,-0.015827379921362388
8.576,-0.015841323436259044
8.58,-0.015546370015108984
8.584,-0.015510261119635238
8.588000000000001,-0.015626665428479364
8.592,-0.015544230406788635
8.596,-0.01560413943975839
8.6,-0.015622602576724993
8.604000000000001,-0.015467661277571671
8.608,-0.01549451456401919
8.612,-0.015604740453331522
8.616,-0.015506005943537467
8.620000000000001,-0.01536589765936903
8.624,-0.01530560397771247
8.628,-0.01538371170167665
8.632,-0.01572003889720109
8.636000000000001,-0.015570795206721052
8.64,-0.015704580828100147
8.644,-0.015605028939846626
8.648,-0.015286587908258587
8.652000000000001,-0.015422801624473128
8.656,-0.015738021223309185
8.66,-0.01565938460740065
8.664,-0.015568102665913422
8.668000000000001,-0.01554786052877035
8.672,-0.015400059270865829
8.676,-0.015222880469506638
8.68,-0.015532138013697228
8.684000000000001,-0.01567897764988474
8.688,-0.015557356543225829
8.692,-0.015392053770071716
8.696,-0.015236078727572606
8.700000000000001,-0.015409531244778382
8.704,-0.015714197045270252
8.708,-0.015571227936493705
8.712,-0.015264831216911223
8.716,-0.015250382850613139
8.72,-0.015566515990080354
8.724,-0.015558173921685289
8.728,-0.015469175831775964
8.732,-0.01542710488165675
8.736,-0.01538503393153754
8.74,-0.015235525795085325
8.744,-0.015086282104605291
8.748,-0.01523266497047722
8.752,-0.015535768135678942
8.756,-0.015569857625546966
8.76,-0.015261393419272908
8.764,-0.015012766124339832
8.768,-0.015400852608782363
8.772,-0.015448428843231459
8.776,-0.015455304438508084
8.78,-0.015272860758248262
8.784,-0.01525838835140725
8.788,-0.015439918491035915
8.792,-0.015431961071327653
8.796,-0.015365224524167123
8.8,-0.015336087386141704
8.804,-0.015160375057900953
8.808,-0.015122198675735634
8.812,-0.015403088379274413
8.816,-0.015480234481521584
8.82,-0.015341881156986693
8.824,-0.015037119194323123
8.828,-0.014963050281570387
8.832,-0.015562693543755238
8.836,-0.015416022191368204
8.84,-0.015244396755424747
8.844,-0.01517881415432463
8.848,-0.015296180084885766
8.852,-0.01541669532657011
8.856,-0.015379192079606701
8.86,-0.01520840806266563
8.864,-0.015033801599399437
8.868,-0.015373374268218788
8.872,-0.015491846063754486
8.876,-0.01510765414726585
8.88,-0.01518165093838981
8.884,-0.015349814536152029
8.888,-0.015288006300291177
8.892,-0.015356593969256954
8.896,-0.015191796047504272
8.9,-0.015222087131590104
8.904,-0.01528266929976177
8.908,-0.01496228098419678
8.912,-0.015380394106752964
8.916,-0.015237304795261796
8.92,-0.015156384327775359
8.924,-0.0154590307226615
8.928,-0.015492519198956394
8.932,-0.015288030340834103
8.936,-0.015325341263454112
8.94,-0.015313994127193387
8.944,-0.01521860125286594
8.948,-0.015096379132633902
8.952,-0.015086762915463797
8.956,-0.015241968660589297
8.96,-0.015419700394435768
8.964,-0.015394866513593973
8.968,-0.015273750258336495
8.972,-0.014907997438271535
8.976,-0.015020747584591019
8.98,-0.015494706888362592
8.984,-0.015392871148531176
8.988,-0.015319739816952525
8.992,-0.01514013292075788
8.996,-0.015019569597987682
9.0,-0.015401501703441345
9.004,-0.015446553680883289
9.008000000000001,-0.01539284710798825
9.012,-0.01506358783208384
9.016,-0.014870734596737377
9.02,-0.015401958473756925
9.024000000000001,-0.015477085170398374
9.028,-0.015359070145178256
9.032,-0.015311686235072562
9.036,-0.015174462816055157
9.040000000000001,-0.014965286052062437
9.044,-0.015233818916537632
9.048,-0.015547115271939667
9.052,-0.0153972705678865
9.056000000000001,-0.015213648901023336
9.06,-0.014849146189190488
9.064,-0.014845492026665848
9.068,-0.015596879195794961
9.072000000000001,-0.015630511915347405
9.076,-0.01538609171542625
9.08,-0.015285265678397697
9.084,-0.015070391305731692
9.088000000000001,-0.01488554357117934
9.092,-0.01541376238033323
9.096,-0.015546634461081161
9.1,-0.015336928805144088
9.104000000000001,-0.015285458002741099
9.108,-0.015062433886023427
9.112,-0.014785054101751736
9.116,-0.015232785173191845
9.120000000000001,-0.01564657099802148
9.124,-0.015464343682647985
9.128,-0.015187637033578201
9.132,-0.0152924057196465
9.136000000000001,-0.015215620225543208
9.14,-0.015169750869641806
9.144,-0.015201460345760228
9.148,-0.015028079950183225
9.152000000000001,-0.015402126757557403
9.156,-0.015544903541990543
9.16,-0.015390611337496201
9.164,-0.0152560564187435
9.168000000000001,-0.015102317146736441
9.172,-0.015265432230484354
9.176,-0.015384072309820529
9.18,-0.015380225822952487
9.184000000000001,-0.015304113464051104
9.188,-0.014893957761203181
9.192,-0.014760989518283548
9.196,-0.015788362120194688
9.200000000000001,-0.015601831547637566
9.204,-0.015383303012446921
9.208,-0.015250238607355587
9.212,-0.015011780462079896
9.216000000000001,-0.014957929645927306
9.22,-0.01550090934843731
9.224,-0.015632891929097007
9.228,-0.01531327291090563
9.232,-0.015142128285820677
9.236,-0.015331904331672709
9.24,-0.01536229157793024
9.244,-0.015372412646501776
9.248,-0.015365801497197329
9.252,-0.015292117233131397
9.256,-0.015079574793129142
9.26,-0.015059765385758721
9.264,-0.015512112241440484
9.268,-0.015492759604385646
9.272,-0.015326471168971598
9.276,-0.015225548969771342
9.28,-0.015112510336936754
9.284,-0.015158572017181559
9.288,-0.015414050866848333
9.292,-0.01550598190299454
9.296,-0.015208792711352432
9.3,-0.015044307316657778
9.304,-0.01528687639477369
9.308,-0.015562453138325985
9.312,-0.015505236646163859
9.316,-0.015275433096341265
9.32,-0.015070872116590197
9.324,-0.015272307825760981
9.328,-0.015409627406950083
9.332,-0.01551278537664239
9.336,-0.015385683026196521
9.34,-0.01521631740128804
9.344,-0.015298632220264143
9.348,-0.015349574130722776
9.352,-0.01536904697049224
9.356,-0.015158932625325437
9.36,-0.014944394820260384
9.364,-0.015602937412612128
9.368,-0.015618010833026268
9.372,-0.015378927633634522
9.376,-0.015179920019299192
9.38,-0.015365657253939777
9.384,-0.01534337167064806
9.388,-0.015320052344010553
9.392,-0.015393977013505738
9.396,-0.015217880036578183
9.4,-0.015407535879715587
9.404,-0.015384529080136109
9.408,-0.015138137555695085
9.412,-0.015404699095650405
9.416,-0.015248579809893744
9.42,-0.01545177047869807
9.424,-0.015545961325879255
9.428,-0.015261489581444609
9.432,-0.015281178786100403
9.436,-0.015470594223808554
9.44,-0.015478647805688518
9.444,-0.015373326187132937
9.448,-0.015389481431978713
9.452,-0.015382966444845967
9.456,-0.015366955443257741
9.46,-0.015355920834055046
9.464,-0.015296829179544748
9.468,-0.01521540386065688
9.472,-0.015553750461787039
9.476,-0.015538580879201198
9.48,-0.015143474556224492
9.484,-0.015466242885539081
9.488,-0.01566481777010176
9.492,-0.01545629010076802
9.496,-0.015147080637663282
9.5,-0.015466170763910306
9.504,-0.015437802923258493
9.508000000000001,-0.015581180721264765
9.512,-0.015566203463022326
9.516,-0.015515333674192468
9.52,-0.015319066681750617
9.524000000000001,-0.015285938813599605
9.528,-0.01551954076920439
9.532,-0.015538989568430927
9.536,-0.015244396755424747
9.540000000000001,-0.015197445575091709
9.544,-0.015758840333482464
9.548,-0.015372484768130553
9.552,-0.015262667568047948
9.556000000000001,-0.015510525565607416
9.56,-0.01555531309707718
9.564,-0.015495956996594706
9.568,-0.015484489657619355
9.572000000000001,-0.01551639145808118
9.576,-0.015519180161060511
9.58,-0.015506534835481822
9.584,-0.015499587118576422
9.588000000000001,-0.015435951801453247
9.592,-0.01514044544781591
9.596,-0.015423017989359456
9.6,-0.015711432382833845
9.604000000000001,-0.015627530888024672
9.608,-0.015446770045769616
9.612,-0.015308440761777651
9.616,-0.015335919102341227
9.620000000000001,-0.01558800823545554
9.624,-0.015626256739249632
9.628,-0.015651114660634357
9.632,-0.015507520497741758
9.636000000000001,-0.015502351781012827
9.64,-0.01535306000944694
9.644,-0.015571973193324389
9.648,-0.015559472111003251
9.652000000000001,-0.015430109949522408
9.656,-0.015440086774836393
9.66,-0.015383639580047874
9.664,-0.015346016130369837
9.668000000000001,-0.01572136112706198
9.672,-0.01575242150852142
9.676,-0.015422368894700474
9.68,-0.015371859714014495
9.684000000000001,-0.015282380813246666
9.688,-0.015644070781557252
9.692,-0.01576535532061521
9.696,-0.015675251365731325
9.700000000000001,-0.01560632712916459
9.704,-0.015514804782248114
9.708,-0.015522810283042225
9.712,-0.01550035641595003
9.716000000000001,-0.015536104703279896
9.72,-0.015601519020579538
9.724,-0.015578127572313256
9.728,-0.015246704647545573
9.732,-0.015260792405699776
9.736,-0.015914310524580144
9.74,-0.015581445167236942
9.744,-0.015395010756851525
9.748,-0.0156257518878482
9.752,-0.015686814866878375
9.756,-0.015637147105194777
9.76,-0.015652484971581095
9.764,-0.01545076077589521
9.768,-0.015441841734469938
9.772,-0.015647917268425297
9.776,-0.015563775368186874
9.78,-0.015739607899142253
9.784,-0.015639695402744857
9.788,-0.015328755020549499
9.792,-0.015509155254660676
9.796,-0.015720832235117624
9.8,-0.015504779875848277
9.804,-0.015499995807806151
9.808,-0.015850338639856017
9.812,-0.015780500862658125
9.816,-0.015624381576901462
9.82,-0.01577982772745622
9.824,-0.01574444004827023
9.828,-0.015675900460390305
9.832,-0.0156890265968275
9.836,-0.01569383470541255
9.84,-0.015724101748955457
9.844,-0.01565674014767887
9.848,-0.015544134244616934
9.852,-0.015556851691824398
9.856,-0.015746267129532553
9.86,-0.015564953354790212
9.864,-0.015570915409435677
9.868,-0.015984749315351165
9.872,-0.015514708620076412
9.876,-0.015687992853481714
9.88,-0.01572850116831078
9.884,-0.015589570870745681
9.888,-0.015859041316394963
9.892,-0.01591416628132259
9.896,-0.015855363113327397
9.9,-0.015771365456346526
9.904,-0.01577905843008261
9.908,-0.01574932027848406
9.912,-0.01573684323670585
9.916,-0.015718836870054827
9.92,-0.015739655980228105
9.924,-0.01564488816001671
9.928,-0.015513939322702803
9.932,-0.015592503816982564
9.936,-0.01601907921064844
9.94,-0.01584581901778607
9.944,-0.015695637746131946
9.948,-0.015637099024108928
9.952,-0.01595717481261589
9.956,-0.0159353940807256
9.96,-0.015723813262440357
9.964,-0.01561454899484503
9.968,-0.015933879526521307
9.972,-0.015919984092710508
9.976,-0.015808219608650954
9.98,-0.015780597024829826
9.984,-0.015750906954317127
9.988,-0.015596999398509588
9.992,-0.015662726242867263
9.996,-0.015844929517697833
10.0,-0.015623660360613705
10.004,-0.015520622593636027
10.008000000000001,-0.016119208071932165
10.012,-0.01599984677630823
10.016,-0.015887817846276502
10.02,-0.015582695275469056
10.024000000000001,-0.015615630819276667
10.028,-0.01577369738901028
10.032,-0.015982152936715236
10.036,-0.015941812905686643
10.040000000000001,-0.015858969194766186
10.044,-0.015769898983228087
10.048,-0.015744920859128736
10.052,-0.015854762099754265
10.056000000000001,-0.01581783582582106
10.06,-0.01560901966997222
10.064,-0.015468262291144803
10.068,-0.015978402612018897
10.072000000000001,-0.01591786852493308
10.076,-0.015763600360981667
10.08,-0.015664649486301283
10.084,-0.015713403707353718
10.088000000000001,-0.01597984504459441
10.092,-0.0159400579460531
10.096,-0.015702104652178844
10.1,-0.015881471142944234
10.104000000000001,-0.015875749493728022
10.108,-0.01584990591008336
10.112,-0.01586235891131865
10.116,-0.01584245334177653
10.120000000000001,-0.015758792252396615
10.124,-0.015607577237396704
10.128,-0.01577687074067641
10.132,-0.01581810027179324
10.136000000000001,-0.015728380965596155
10.14,-0.015644070781557252
10.144,-0.015986263869555456
10.148,-0.01603501809060789
10.152000000000001,-0.01584363132837987
10.156,-0.015815624095871936
10.16,-0.01585514674844107
10.164,-0.015811993973890222
10.168000000000001,-0.015870292290483985
10.172,-0.015975517746867864
10.176,-0.01587875456159368
10.18,-0.015835120976184325
10.184000000000001,-0.01578403482246814
10.188,-0.015815696217500713
10.192,-0.015814806717412477
10.196,-0.015778289132709
10.200000000000001,-0.015529806081033477
10.204,-0.015515718322879273
10.208,-0.015958304718133375
10.212,-0.016269966316616494
10.216000000000001,-0.01572749146550792
10.22,-0.01562601633382038
10.224,-0.016038503969332055
10.228,-0.015975445625239088
10.232000000000001,-0.015861685776116744
10.236,-0.015900391050226417
10.24,-0.015863512857379063
10.244,-0.015881110534800354
10.248,-0.015883803075607984
10.252,-0.015861661735573816
10.256,-0.015798747634738403
10.26,-0.01572530377610172
10.264,-0.01585459381595379
10.268,-0.01571441341015658
10.272,-0.01576749492893556
10.276,-0.015678785325541338
10.28,-0.016010616939538747
10.284,-0.01608105573030977
10.288,-0.015899525590681106
10.292,-0.0157462190484467
10.296,-0.015851492585916428
10.3,-0.01598025373382414
10.304,-0.015938711675649288
10.308,-0.015966382340556265
10.312,-0.015913445065034833
10.316,-0.015838174125135832
10.32,-0.015826538502360005
10.324,-0.01588738511650385
10.328,-0.015836996138532494
10.332,-0.015936379742985535
10.336,-0.01581884552862392
10.34,-0.015647316254852165
10.344,-0.015738526074710615
10.348,-0.015899621752852807
10.352,-0.015930008999110342
10.356,-0.01611512117963487
10.36,-0.016030185941479914
10.364,-0.015782712592607252
10.368,-0.015696647448934807
10.372,-0.016115866436465554
10.376,-0.015966382340556265
10.38,-0.015904069253293983
10.384,-0.015918157011448185
10.388,-0.015871662601430726
10.392,-0.015777255389363216
10.396,-0.01588438004863819
10.4,-0.015921666930715273
10.404,-0.015793747201809948
10.408,-0.015601639223294163
10.412,-0.015789299701368772
10.416,-0.016041749442626964
10.42,-0.016107452246441712
10.424,-0.01607314639168736
10.428,-0.015745497832158943
10.432,-0.015802594121606443
10.436,-0.0161543553456889
10.44,-0.015898155279734368
10.444,-0.01586596499275744
10.448,-0.01600756379058724
10.452,-0.015960660691340053
10.456,-0.015902314293660437
10.46,-0.01582733184027654
10.464,-0.015977849679531614
10.468,-0.015904141374922756
10.472,-0.015816729960846498
10.476,-0.01591077656477013
10.48,-0.015888947751793992
10.484,-0.01578240006554922
10.488,-0.01563628164564947
10.492,-0.01584569881507144
10.496,-0.016200368944847852
10.5,-0.01602552207615241
10.504,-0.01572886177645466
10.508000000000001,-0.01556293394918449
10.512,-0.016252873490596634
10.516,-0.016177770834498107
10.52,-0.015888875630165215
10.524000000000001,-0.015958617245191403
10.528,-0.016003669222633347
10.532,-0.01598989399153717
10.536,-0.015934889229324168
10.540000000000001,-0.01591895034936472
10.544,-0.015903323996463298
10.548,-0.01592099379551337
10.552,-0.015841900409289247
10.556000000000001,-0.01576855271282427
10.56,-0.01602309398131696
10.564,-0.01593306214806185
10.568,-0.015740809926288516
10.572000000000001,-0.015792737499007087
10.576,-0.01609894189424617
10.58,-0.016200729552991733
10.584,-0.016057808525301042
10.588000000000001,-0.015982056774543535
10.592,-0.015952318622944984
10.596,-0.015934360337379813
10.6,-0.01596356959703401
10.604000000000001,-0.01596142998871366
10.608,-0.015958040272161196
10.612,-0.015965060110695376
10.616,-0.01593700479710159
10.620000000000001,-0.01567349640609778
10.624,-0.015657220958537377
10.628,-0.016033984347262106
10.632,-0.01619825337707043
10.636000000000001,-0.016026820265470375
10.64,-0.016097884110357456
10.644,-0.01605437072766273
10.648,-0.015889140076137395
10.652000000000001,-0.015941692702972018
10.656,-0.015993259667546708
10.66,-0.01603912902344811
10.664,-0.016005929033668324
10.668000000000001,-0.015924239268808277
10.672,-0.01588808229224868
10.676,-0.01594275048686073
10.68,-0.015933542958920355
10.684000000000001,-0.016121660207310543
10.688,-0.01600071223585354
10.692,-0.015853536032065078
10.696,-0.015935874891584104
10.700000000000001,-0.016019415778249394
10.704,-0.0161473114666118
10.708,-0.01608045471673664
10.712,-0.01602619521135432
10.716000000000001,-0.01594599596015564
10.72,-0.015911065051285235
10.724,-0.01605756811987179
10.728,-0.016153610088858215
10.732000000000001,-0.016044490064520446
10.736,-0.015935730648326554
10.74,-0.015970228827424306
10.744,-0.016091032555623757
10.748000000000001,-0.015813099838864784
10.752,-0.015901040144885397
10.756,-0.01619048828170557
10.76,-0.016049995348850328
10.764,-0.0160450189564648
10.768,-0.016141854263367762
10.772,-0.016289367034757182
10.776,-0.01620347017488521
10.78,-0.016101033421480667
10.784,-0.016054803457435384
10.788,-0.01606405906646161
10.792,-0.016080526838365417
10.796,-0.016068290202016458
10.8,-0.01609035942042185
10.804,-0.016106875273411505
10.808,-0.01603939346942029
10.812,-0.015951405082313824
10.816,-0.016145388223177775
10.82,-0.016174813847718298
10.824,-0.01614298416888525
10.828,-0.016118198369129304
10.832,-0.016115433706692897
10.836,-0.01606872293178911
10.84,-0.015929119499022107
10.844,-0.015889043913965693
10.848,-0.016110890044080024
10.852,-0.01632638947086209
10.856,-0.016278572830983738
10.86,-0.016178948821101442
10.864,-0.01608567151455142
10.868,-0.01609355681263091
10.872,-0.016133920884202426
10.876,-0.016144402560917842
10.88,-0.016205802107548965
10.884,-0.016188829484243727
10.888,-0.016091272961053008
10.892,-0.016069564350791495
10.896,-0.016272057843850992
10.9,-0.016225323028404275
10.904,-0.016222486244339095
10.908,-0.016138488587358227
10.912,-0.01610264413785666
10.916,-0.01615142239945202
10.92,-0.016080791284337596
10.924,-0.016128631964758867
10.928,-0.01648789383823401
10.932,-0.016334635377085453
10.936,-0.016305955009375615
10.94,-0.016309897658415357
10.944,-0.016278236263382786
10.948,-0.016264292748486134
10.952,-0.016264364870114907
10.956,-0.016256912301808077
10.96,-0.016251286814763566
10.964,-0.01624530071957517
10.968,-0.01616399560340193
10.972,-0.016181280753765195
10.976,-0.016318167605181646
10.98,-0.01626236950505211
10.984,-0.01602090629191076
10.988,-0.015957583501845618
10.992,-0.016406781046404167
10.996,-0.016408680249295263
11.0,-0.016323624808425682
11.004,-0.016277370803837475
11.008000000000001,-0.016238833813528274
11.012,-0.01622739051509585
11.016,-0.016246021935862928
11.02,-0.016252368639195203
11.024000000000001,-0.016238929975699975
11.028,-0.01623544409697581
11.032,-0.016239603110901883
11.036,-0.016167361279411468
11.040000000000001,-0.0160608135931667
11.044,-0.016180198929333558
11.048,-0.01627186551950759
11.052,-0.016308647550183242
11.056000000000001,-0.016252032071594247
11.06,-0.016262201221251636
11.064,-0.01638276454402183
11.068,-0.016330716768588636
11.072000000000001,-0.016348578891982105
11.076,-0.016278236263382786
11.08,-0.01629638687329136
11.084,-0.016322326619107718
11.088000000000001,-0.016308984117784198
11.092,-0.01631083523958944
11.096,-0.016321076510875606
11.1,-0.016323552686796906
11.104000000000001,-0.016320571659474172
11.108,-0.01625551795031841
11.112,-0.01615820183255694
11.116,-0.01636093573104569
11.120000000000001,-0.016282755885452735
11.124,-0.016443779441966146
11.128,-0.01634280916168004
11.132,-0.016294487670400263
11.136000000000001,-0.016444620860968536
11.14,-0.0163275434169225
11.144,-0.016472123242075035
11.148,-0.01638052877352978
11.152000000000001,-0.01637814875978018
11.156,-0.016398102410408146
11.16,-0.016383678084652988
11.164,-0.016372282867306416
11.168000000000001,-0.016370143258986065
11.172,-0.016370575988758723
11.176,-0.01637129720504648
11.18,-0.01635795470372296
11.184000000000001,-0.016303743279426488
11.188,-0.016254436125886774
11.192,-0.01625491693674528
11.196,-0.016257729680267535
11.200000000000001,-0.016429787845983646
11.204,-0.016492461541389808
11.208,-0.016483446337792834
11.212,-0.01635348316273886
11.216000000000001,-0.016366224650489248
11.22,-0.016347905756780197
11.224,-0.016323624808425682
11.228,-0.016420195669356465
11.232000000000001,-0.01641502695262753
11.236,-0.016378124719237254
11.24,-0.01636240220416413
11.244,-0.01632141307847656
11.248000000000001,-0.016303911563226966
11.252,-0.016387019720119602
11.256,-0.016352906189708652
11.26,-0.01617332333405693
11.264,-0.016261792532021906
11.268,-0.016384567584741223
11.272,-0.01642382579133818
11.276,-0.016422383358762664
11.28,-0.01631982640264349
11.284,-0.016310931401761142
11.288,-0.016351920527448716
11.292,-0.01636632081266095
11.296,-0.016361873312219777
11.3,-0.016335813363688792
11.304,-0.016329106052212643
11.308,-0.01632718280877862
11.312,-0.01632922625492727
11.316,-0.016330957174017887
11.32,-0.016305594401231735
11.324,-0.01614805672344248
11.328,-0.01620089783679221
11.332,-0.016379446949098143
11.336,-0.016451664740045637
11.34,-0.016373701259339006
11.344,-0.016334923863600557
11.348,-0.016297060008493267
11.352,-0.01635155991930484
11.356,-0.016257729680267535
11.36,-0.016425989440201454
11.364,-0.016442312968847708
11.368,-0.016421902547904158
11.372,-0.01638564940917286
11.376,-0.016369181637269057
11.38,-0.0163571373252635
11.384,-0.016355478527801656
11.388,-0.01631444132102823
11.392,-0.01628592923711887
11.396,-0.01637860553009576
11.4,-0.01635062233813075
11.404,-0.016258811504699173
11.408,-0.01633636629617607
11.412,-0.01631638860500518
11.416,-0.016388582355409742
11.42,-0.01645332353750748
11.424,-0.01644058204975709
11.428,-0.01634425159425556
11.432,-0.016322470862365268
11.436,-0.01634855485143918
11.44,-0.016359228852497996
11.444,-0.016349997284014695
11.448,-0.01634078975607432
11.452,-0.01632662987629134
11.456,-0.01627638514157754
11.46,-0.016326750079005966
11.464,-0.016335380633916135
11.468,-0.016231982258794575
11.472,-0.01627318774936848
11.476,-0.01641529139859971
11.48,-0.01636271473122216
11.484,-0.016398583221266652
11.488,-0.016458516294779336
11.492,-0.016358820163268267
11.496,-0.016347016256691962
11.5,-0.016359276933583848
11.504,-0.016334322850027425
11.508000000000001,-0.01632266318670867
11.512,-0.016325067241001197
11.516,-0.01632410561928419
11.52,-0.01631653284826273
11.524000000000001,-0.01630186811707832
11.528,-0.01626958166792969
11.532,-0.016205994431892363
11.536,-0.01627020672204575
11.540000000000001,-0.01642957148109732
11.544,-0.016251599341821594
11.548,-0.016358772082182418
11.552,-0.016460800146357236
11.556000000000001,-0.016420628399129118
11.56,-0.01639738119412039
11.564,-0.01634088591824602
11.568,-0.016301579630563216
11.572000000000001,-0.016375384097343775
11.576,-0.01639488097765616
11.58,-0.016373508934995604
11.584,-0.016348338486552854
11.588000000000001,-0.016247728814410625
11.592,-0.01628160193939232
11.596,-0.016418873439495576
11.6,-0.01634475644565699
11.604000000000001,-0.016260878991390747
11.608,-0.016258835545242097
11.612,-0.016310474631445564
11.616,-0.016236549961950373
11.620000000000001,-0.016371922259162536
11.624,-0.016342737040051267
11.628,-0.016426999143004314
11.632,-0.016446856631460584
11.636000000000001,-0.01638524071994313
11.64,-0.016337856809837438
11.644,-0.016373653178253154
11.648,-0.016416445344660125
11.652000000000001,-0.016390505598843766
11.656,-0.016377716030007525
11.66,-0.0163710327590743
11.664,-0.01631713386183586
11.668000000000001,-0.016294728075829514
11.672,-0.016472339606961362
11.676,-0.016364277366512303
11.68,-0.016163154184399547
11.684000000000001,-0.016309633212443178
11.688,-0.01653503734291045
11.692,-0.016430316737928
11.696,-0.016399088072668083
11.700000000000001,-0.01645849225423641
11.704,-0.016399592924069513
11.708,-0.0163661765694034
11.712,-0.01631658092934858
11.716000000000001,-0.016348915459583058
11.72,-0.016463709052051193
11.724,-0.01639940059972611
11.728,-0.016393895315396225
11.732000000000001,-0.016421710223560756
11.736,-0.016396347450774604
11.74,-0.016420123547727688
11.744,-0.01638185100339067
11.748000000000001,-0.016269365303043362
11.752,-0.016229986893731778
11.756,-0.016403439410937557
11.76,-0.01648895162212272
11.764000000000001,-0.01638363000356714
11.768,-0.016403559613652183
11.772,-0.016427552075491594
11.776,-0.01632562017348848
11.78,-0.016254796734030654
11.784,-0.01651616551671412
11.788,-0.016495009838939888
11.792,-0.016430028251412897
11.796,-0.016422527602020214
11.8,-0.016408367722237235
11.804,-0.016407862870835805
11.808,-0.0163938712748533
11.812,-0.0163798796788708
11.816,-0.016349901121842994
11.82,-0.01628145769613477
11.824,-0.016239194421672154
11.828,-0.01635343508165301
11.832,-0.01630403176594159
11.836,-0.016433442008508284
11.84,-0.016517656030375485
11.844,-0.016409617830469347
11.848,-0.016304176009199145
11.852,-0.016252032071594247
11.856,-0.016311219888276246
11.86,-0.01644087053627219
11.864,-0.016482220270103647
11.868,-0.016422383358762664
11.872,-0.016384158895511494
11.876,-0.01635987794715698
11.88,-0.01632073994327465
11.884,-0.016337063471920904
11.888,-0.016387404368806407
11.892,-0.016329009890040942
11.896,-0.01619652245797981
11.9,-0.016336318215090222
11.904,-0.016440245482156134
11.908,-0.01641757525017761
11.912,-0.016435557576285707
11.916,-0.016356151663003565
11.92,-0.016325908660003583
11.924,-0.01630672430674922
11.928,-0.0162726348168812
11.932,-0.01632417774091296
11.936,-0.016436134549315914
11.94,-0.016414257655253926
11.944,-0.01636526302877224
11.948,-0.016296675359806462
11.952,-0.016308238860953513
11.956,-0.016369542245412934
11.96,-0.01636014239312916
11.964,-0.016316052037404223
11.968,-0.016194382849659465
11.972,-0.01633946752621343
11.976,-0.016415844331086994
11.98,-0.016306411779691193
11.984,-0.016326317349233312
11.988,-0.01632174964607751
11.992,-0.016358675920010717
11.996,-0.01633292849853776
12.0,-0.0163732204484805
12.004,-0.016397140788691138
12.008000000000001,-0.016385024355056805
12.012,-0.016395073301999564
12.016,-0.0163890150851824
12.02,-0.016369999015728515
12.024000000000001,-0.016365335150401013
12.028,-0.01636540727202979
12.032,-0.016359132690326295
12.036,-0.0163597096633565
12.040000000000001,-0.016260374139989316
12.044,-0.016154836156547406
12.048,-0.016413800884938344
12.052,-0.01653311409947643
12.056000000000001,-0.016378797854439162
12.06,-0.016339491566756355
12.064,-0.016362498366335833
12.068,-0.01645793932174913
12.072000000000001,-0.016447601888291266
12.076,-0.016411877641504324
12.08,-0.016392428842277786
12.084,-0.01638372616573884
12.088000000000001,-0.016408608127666487
12.092,-0.016396635937289707
12.096,-0.016370551948215795
12.1,-0.01633367375536844
12.104000000000001,-0.01642144577758858
12.108,-0.016406011749030558
12.112,-0.016396635937289707
12.116,-0.016409521668297646
12.120000000000001,-0.016427359751148195
12.124,-0.0162842463991141
12.128,-0.016230876393820013
12.132,-0.01651493944902493
12.136000000000001,-0.016452674442848498
12.14,-0.016236958651180106
12.144,-0.016509121637637014
12.148,-0.01656838157594779
12.152000000000001,-0.01643788950894946
12.156,-0.016403848100167286
12.16,-0.01644743360449079
12.164,-0.01646058378147091
12.168000000000001,-0.01641771949343516
12.172,-0.01639069792318717
12.176,-0.01637194629970546
12.18,-0.01635206477070627
12.184000000000001,-0.01633083697130326
12.188,-0.016383918490082243
12.192,-0.0162887179400982
12.196,-0.016246094057491705
12.200000000000001,-0.016392981774765066
12.204,-0.01634704029723489
12.208,-0.016288693899555274
12.212,-0.01631552314545987
12.216000000000001,-0.016305257833630783
12.22,-0.01626172041039313
12.224,-0.016392164396305607
12.228,-0.016426806818660912
12.232000000000001,-0.01647940752658139
12.236,-0.01639271732879289
12.24,-0.016361849271676852
12.244,-0.016342737040051267
12.248000000000001,-0.016327831903437603
12.252,-0.016339010755897852
12.256,-0.016355238122372405
12.26,-0.016309897658415357
12.264000000000001,-0.016360406839101335
12.268,-0.016278861317498842
12.272,-0.016280664358218237
12.276,-0.016329851309043325
12.280000000000001,-0.01634754514863632
12.284,-0.016343458256339025
12.288,-0.016304752982229352
12.292,-0.016409834195355678
12.296,-0.016372835799793695
12.3,-0.016447722091005892
12.304,-0.016422118912790485
12.308,-0.016373749340424855
12.312,-0.0163573296496069
12.316,-0.016340405107387514
12.32,-0.016326701997920117
12.324,-0.016342184107563985
12.328,-0.01633141394433347
12.332,-0.01633617397183267
12.336,-0.016350165567815173
12.34,-0.01623041962350443
12.344,-0.01615089350750766
12.348,-0.016423224777765047
12.352,-0.01652960418020934
12.356,-0.016382331814249175
12.36,-0.016369686488670487
12.364,-0.016327471295293723
12.368,-0.016339010755897852
12.372,-0.016404713559712594
12.376,-0.016370263461700695
12.38,-0.016344011188826304
12.384,-0.016348314446009926
12.388,-0.01634393906719753
12.392,-0.01632379309222616
12.396,-0.016335837404231716
12.4,-0.016370744272559197
12.404,-0.016383533841395438
12.408,-0.016302973982052882
12.412,-0.016323913294940786
12.416,-0.016274894627916172
12.42,-0.016308335023125214
12.424,-0.016395241585800042
12.428,-0.01643173512996059
12.432,-0.01644632773951623
12.436,-0.0163775958272929
12.44,-0.016394111680282555
12.444,-0.016366849704605304
12.448,-0.016350718500302452
12.452,-0.016385625368629936
12.456,-0.01637088851581675
12.46,-0.016349660716413743
12.464,-0.01636759496143599
12.468,-0.016367162231663335
12.472,-0.016356031460288935
12.476,-0.016339299242412952
12.48,-0.016277947776867682
12.484,-0.01607903632470405
12.488,-0.016367306474920885
12.492,-0.016584849347851593
12.496,-0.01640990631698445
12.5,-0.01633475557980008
12.504,-0.01626551881617532
12.508000000000001,-0.01627176935733589
12.512,-0.016361320379732494
12.516,-0.016478518026493156
12.52,-0.016409738033183977
12.524000000000001,-0.016371753975362058
12.528,-0.01633009171447258
12.532,-0.016335404674459063
12.536,-0.01638271646293598
12.540000000000001,-0.01635540640617288
12.544,-0.016331293741618843
12.548,-0.01631470576700041
12.552,-0.016287539953494863
12.556000000000001,-0.016298069711296128
12.56,-0.016300065076358925
12.564,-0.016371465488846958
12.568,-0.0163688450696681
12.572000000000001,-0.01632475471394317
12.576,-0.01629104987276195
12.58,-0.016248594273955936
12.584,-0.016187483213839914
12.588000000000001,-0.01621835127095595
12.592,-0.016447409563947864
12.596,-0.01641067561435806
12.6,-0.016363772515110873
12.604000000000001,-0.016332640012022656
12.608,-0.01631420091559898
12.612,-0.01630744552303698
12.616,-0.016302998022595806
12.620000000000001,-0.016302397009022675
12.624,-0.016304873184943978
12.628,-0.016306796428377998
12.632,-0.016306435820234118
12.636000000000001,-0.016301675792734917
12.64,-0.016275038871173726
12.644,-0.016267369937980565
12.648,-0.016286602372320776
12.652000000000001,-0.016215274081461516
12.656,-0.016203157647827184
12.66,-0.016381754841218968
12.664,-0.016359421176841398
12.668000000000001,-0.01633165434976272
12.672,-0.01630730127977943
12.676,-0.016322591065079897
12.68,-0.016315282740030617
12.684000000000001,-0.016306003090461464
12.688,-0.016298790927583885
12.692,-0.016289150669870855
12.696,-0.01628121729070552
12.700000000000001,-0.01627765929035258
12.704,-0.01627429361434304
12.708,-0.016268884492184856
12.712,-0.016248089422554506
12.716000000000001,-0.016223856555285836
12.72,-0.016255397747603786
12.724,-0.016309248563756373
12.728,-0.016326149065432834
12.732000000000001,-0.016276144736148287
12.736,-0.016231381245221443
12.74,-0.01625669593692175
12.744,-0.016327086646606922
12.748000000000001,-0.016318744578211853
12.752,-0.01631485001025796
12.756,-0.016307613806837457
12.76,-0.016251382976935267
12.764000000000001,-0.016216596311322405
12.768,-0.016252296517566427
12.772,-0.016266023667576752
12.776,-0.016336510539433625
12.780000000000001,-0.01632338440299643
12.784,-0.01630780613118086
12.788,-0.016244170814057685
12.792,-0.01609338852883043
12.796000000000001,-0.01605300041671599
12.8,-0.016381682719590195
12.804,-0.016502366245075017
12.808,-0.016355141960200704
12.812,-0.016293261602711075
12.816,-0.016245661327719048
12.82,-0.01619709943101002
12.824,-0.01616089437336457
12.828,-0.01625299369331126
12.832,-0.016308960077241273
12.836,-0.01625643149094957
12.84,-0.016222702609225422
12.844,-0.016137863533242168
12.848,-0.016156086264779518
12.852,-0.016216043378835126
12.856,-0.016180174888790633
12.86,-0.016147888439642002
12.864,-0.016186617754294603
12.868,-0.01624186292193686
12.872,-0.016257320991037806
12.876,-0.016243954449171354
12.88,-0.016244771827630816
12.884,-0.01621464902734546
12.888,-0.01614368134463008
12.892,-0.016144426601460767
12.896,-0.016249219328071992
12.9,-0.016253354301455136
12.904,-0.01622758283943925
12.908,-0.01621017748636136
12.912,-0.016201763296337518
12.916,-0.016195176187575995
12.92,-0.016166111171179352
12.924,-0.01613495462754821
12.928,-0.01609752350221358
12.932,-0.01613586816817937
12.936,-0.01621053809450524
12.94,-0.016217918541183294
12.944,-0.016178588212957565
12.948,-0.016178155483184912
12.952,-0.016223087257912227
12.956,-0.016243738084285027
12.96,-0.016159451940789056
12.964,-0.01622597212306326
12.968,-0.016275110992802502
12.972,-0.01622053896036215
12.976,-0.016193421227942453
12.98,-0.01619245960622544
12.984,-0.016192700011654695
12.988,-0.016189069889672978
12.992,-0.016184309862173778
12.996,-0.016171496252794612
13.0,-0.016072665580828854
13.004,-0.016034994050064966
13.008000000000001,-0.01624063685424767
13.012,-0.016308479266382767
13.016,-0.016246142138577554
13.02,-0.016266817005493286
13.024000000000001,-0.016149210669502895
13.028,-0.01618039125367696
13.032,-0.016268451762412203
13.036,-0.016213447000199197
13.040000000000001,-0.016197171552638792
13.044,-0.016192387484596667
13.048,-0.01619801297164118
13.052,-0.016211908405451978
13.056000000000001,-0.016222245838909844
13.06,-0.016210057283646735
13.064,-0.01620205178285262
13.068,-0.016190608484420197
13.072000000000001,-0.016130314802763637
13.076,-0.016054082241147627
13.08,-0.01613521907352039
13.084,-0.016277466966009176
13.088000000000001,-0.016298454359982933
13.092,-0.016281433655591846
13.096,-0.01625313793656881
13.1,-0.016218207027698398
13.104000000000001,-0.016211740121651504
13.108,-0.016196306093093485
13.112,-0.016213711446171373
13.116,-0.016227703042153877
13.120000000000001,-0.016214264378658656
13.124,-0.01620058530973418
13.128,-0.01619409436314436
13.132,-0.016190584443877273
13.136000000000001,-0.01618003064553308
13.14,-0.016156254548579996
13.144,-0.01609338852883043
13.148,-0.01604516319972235
13.152000000000001,-0.016139450209075236
13.156,-0.016366392934289726
13.16,-0.016251767625622072
13.164,-0.016191113335821627
13.168000000000001,-0.016294776156915367
13.172,-0.016250469436304107
13.176,-0.01619669074178029
13.18,-0.01622241412271032
13.184000000000001,-0.016221019771220653
13.188,-0.016207701310440057
13.192,-0.01621262962173974
13.196,-0.01619957560693132
13.200000000000001,-0.016192387484596667
13.204,-0.016193036579255648
13.208,-0.016190560403334345
13.212,-0.01617870841567219
13.216000000000001,-0.016171832820395565
13.22,-0.016182891470141188
13.224,-0.01617308292862768
13.228,-0.016121852531653942
13.232000000000001,-0.016154211102431346
13.236,-0.01616779400918412
13.24,-0.016259051910128424
13.244,-0.01625518138271746
13.248000000000001,-0.016199455404216693
13.252,-0.016155605453921012
13.256,-0.0161751023342334
13.26,-0.016236862489008404
13.264000000000001,-0.01623606915109187
13.268,-0.016230515785676133
13.272,-0.016207821513154686
13.276,-0.016185944619092694
13.280000000000001,-0.016208422526727818
13.284,-0.01621952925755929
13.288,-0.01621597125720635
13.292,-0.01619135374125088
13.296000000000001,-0.0161793815508741
13.3,-0.016202989364026706
13.304,-0.016213086392055317
13.308,-0.016191113335821627
13.312000000000001,-0.016108245584358246
13.316,-0.016129858032448055
13.32,-0.016249002963185665
13.324,-0.01626465335663001
13.328,-0.01624433909785816
13.332,-0.016205489580490933
13.336,-0.016283957912598998
13.34,-0.016280303750074356
13.344,-0.016234626718516353
13.348,-0.016222125636195215
13.352,-0.01626660064060696
13.356,-0.01626080686976197
13.36,-0.016232222664223826
13.364,-0.01625003670653145
13.368,-0.016238833813528274
13.372,-0.01621957733864514
13.376,-0.01625340238254099
13.38,-0.016257561396467057
13.384,-0.016227462636724626
13.388,-0.016181977929510028
13.392,-0.01615983658947586
13.396,-0.016281073047447966
13.4,-0.016226933744780268
13.404,-0.01622313533899808
13.408,-0.016278909398584694
13.412,-0.016216548230236556
13.416,-0.01625816241004019
13.42,-0.01630999382058706
13.424,-0.01631754255106559
13.428,-0.016290737345703923
13.432,-0.01626400426197103
13.436,-0.01630713299597895
13.44,-0.01628054415550361
13.444,-0.016259676964244484
13.448,-0.01625943655881523
13.452,-0.016259316356100603
13.456,-0.016253979355571196
13.46,-0.016253787031227793
13.464,-0.01626657660006403
13.468,-0.016196955187752465
13.472,-0.016129016613445672
13.476,-0.016265494775632397
13.48,-0.016324490267970993
13.484,-0.01617637648300844
13.488,-0.016244603543830338
13.492,-0.01642368154808063
13.496,-0.016394832896570313
13.5,-0.016315018294058438
13.504,-0.0163048010633152
13.508000000000001,-0.016292684629680868
13.512,-0.016272418451994872
13.516,-0.01627030288421745
13.52,-0.016287563994037788
13.524000000000001,-0.016266119829748453
13.528,-0.016236237434892345
13.532,-0.016199479444759617
13.536,-0.016185752294749292
13.540000000000001,-0.016279726777044153
13.544,-0.01626071070759027
13.548,-0.016196450336351035
13.552,-0.01615125411565154
13.556000000000001,-0.0161771938614679
13.56,-0.01622698182586612
13.564,-0.016322591065079897
13.568,-0.016355334284544106
13.572000000000001,-0.01626236950505211
13.576,-0.01625181570670792
13.58,-0.016262537788852588
13.584,-0.016219841784617318
13.588000000000001,-0.01626852388404098
13.592,-0.016283308817940014
13.596,-0.01625400339611412
13.6,-0.016244098692428908
13.604000000000001,-0.016155461210663462
13.608,-0.016084301203604684
13.612,-0.01619272405219762
13.616,-0.016333241025595788
13.620000000000001,-0.016290761386246848
13.624,-0.016162384887025937
13.628,-0.016201282485479012
13.632,-0.016217726216839895
13.636000000000001,-0.016220058149503645
13.64,-0.01622205351456644
13.644,-0.016202244107196024
13.648,-0.016155461210663462
13.652000000000001,-0.01622104381176358
13.656,-0.016225924041977407
13.66,-0.01610329323251564
13.664,-0.016100768975508488
13.668000000000001,-0.016271504911363713
13.672,-0.016250974287705538
13.676,-0.016252897531139558
13.68,-0.016237271178238134
13.684000000000001,-0.016178323766985386
13.688,-0.01617358778002911
13.692,-0.016165389954891595
13.696,-0.016256671896378826
13.700000000000001,-0.016297540819351773
13.704,-0.016244964151974215
13.708,-0.01621262962173974
13.712,-0.01611211611176921
13.716000000000001,-0.01602862330618977
13.72,-0.016214600946259608
13.724,-0.016400602626872374
13.728,-0.016287732277838265
13.732000000000001,-0.01622236604162447
13.736,-0.016233160245397914
13.74,-0.01622830405572701
13.744,-0.016290617142989294
13.748000000000001,-0.016257489274838284
13.752,-0.01622337574442733
13.756,-0.016217053081637987
13.76,-0.016218086824983772
13.764000000000001,-0.016228784866585515
13.768,-0.01622392867691461
13.772,-0.016202556634254052
13.776,-0.01615923557590273
13.780000000000001,-0.016136156654694474
13.784,-0.016132141884025956
13.788,-0.01618774765981209
13.792,-0.016348675054153806
13.796000000000001,-0.016265903464862126
13.8,-0.016158586481243745
13.804,-0.016264605275544162
13.808,-0.016283909831513146
13.812000000000001,-0.016246743152150685
13.816,-0.01624251201659584
13.82,-0.01621277386499729
13.824,-0.016182026010595877
13.828,-0.01616659198203786
13.832,-0.01618217025385343
13.836,-0.0161750061720617
13.84,-0.016164139846659483
13.844,-0.016155990102607817
13.848,-0.01614745570986935
13.852,-0.016111947827968737
13.856,-0.01614399387168811
13.86,-0.01615014825067698
13.864,-0.01604583633492426
13.868,-0.015977200584872633
13.872,-0.01617942963195995
13.876,-0.016245228597946394
13.88,-0.01617825164535661
13.884,-0.016201522890908267
13.888,-0.016166808346924185
13.892,-0.016135916249265223
13.896,-0.016147864399099078
13.9,-0.016127982870099887
13.904,-0.016132406329998135
13.908,-0.016220298554932896
13.912,-0.016176087996493338
13.916,-0.016148441372129285
13.92,-0.016107596489699262
13.924,-0.01609391742077479
13.928,-0.01614755187204105
13.932,-0.016079348851762078
13.936,-0.01611985716659115
13.94,-0.01614000314156252
13.944,-0.01616500530620479
13.948,-0.016162240643768387
13.952,-0.016138296263014825
13.956,-0.016080021986963986
13.96,-0.016165726522492548
13.964,-0.016174717685546597
13.968,-0.016190007470847066
13.972,-0.01615190321031052
13.976,-0.016030690792881344
13.98,-0.016162961860056144
13.984,-0.016176136077579187
13.988,-0.01617332333405693
13.992,-0.016233088123769137
13.996,-0.016190199795190468
14.0,-0.016061029958053027
14.004,-0.01598486951806579
14.008000000000001,-0.01618928625455931
14.012,-0.016285448426260365
14.016,-0.016250012665988526
14.02,-0.016300305481788176
14.024000000000001,-0.01626751418123812
14.028,-0.016214456703002058
14.032,-0.016193156781970273
14.036,-0.01614421023657444
14.040000000000001,-0.016191497984508432
14.044,-0.016203181688370108
14.048,-0.016200561269191255
14.052,-0.01619296445762687
14.056000000000001,-0.01620089783679221
14.06,-0.016222654528139573
14.064,-0.016197363876982195
14.068,-0.016125506694178584
14.072000000000001,-0.016185632092034666
14.076,-0.016240011800131612
14.08,-0.01623017921807518
14.084,-0.016197772566211924
14.088000000000001,-0.016237968353982966
14.092,-0.01622200543348059
14.096,-0.016192700011654695
14.1,-0.01617257807722625
14.104000000000001,-0.01614947511547507
14.108,-0.01627943829052905
14.112,-0.016324273903084663
14.116,-0.01632566825457433
14.120000000000001,-0.01625013286870315
14.124,-0.01625003670653145
14.128,-0.016222317960538617
14.132,-0.016178419929157088
14.136000000000001,-0.016217461770867716
14.14,-0.01622351998768488
14.144,-0.01620529725614753
14.148,-0.01621104294590667
14.152000000000001,-0.016210345770161838
14.156,-0.016196233971464708
14.16,-0.016175535064006055
14.164,-0.016134978668091136
14.168000000000001,-0.01616582268466425
14.172,-0.016187988065241344
14.176,-0.016129112775617373
14.18,-0.016158297994728642
14.184000000000001,-0.01626821135698295
14.188,-0.016217678135754043
14.192,-0.016240564732618895
14.196,-0.016202171985567247
14.200000000000001,-0.016137238479126112
14.204,-0.01616769784701242
14.208,-0.016180511456391586
14.212,-0.016216956919466285
14.216000000000001,-0.016255301585432085
14.22,-0.01623154952902192
14.224,-0.01626547073508947
14.228,-0.016240204124475015
14.232000000000001,-0.016143777506801783
14.236,-0.016180727821277913
14.24,-0.016212172851424157
14.244,-0.01627090389779058
14.248000000000001,-0.01628931895367133
14.252,-0.016255133301631607
14.256,-0.0161999362150752
14.26,-0.0161591153731881
14.264000000000001,-0.016109495692590358
14.268,-0.01608091148705222
14.272,-0.016354108216854915
14.276,-0.016435317170856455
14.280000000000001,-0.016291578764706306
14.284,-0.016165245711634045
14.288,-0.016201330566564864
14.292,-0.016249700138930498
14.296000000000001,-0.016300714171017906
14.3,-0.016267466100152266
14.304,-0.016178588212957565
14.308,-0.016028815630533173
14.312000000000001,-0.016163370549285874
14.316,-0.016435870103343738
14.32,-0.016402934559536127
14.324,-0.016278717074241292
14.328000000000001,-0.01624530071957517
14.332,-0.016221524622622083
14.336,-0.016217533892496493
14.34,-0.016218038743897923
14.344,-0.01621003324310381
14.348,-0.016199287120416215
14.352,-0.01619657053906566
14.356,-0.01614380154734471
14.36,-0.016089157393275585
14.364,-0.01606336189071678
14.368,-0.016170919279764405
14.372,-0.016303863482141117
14.376,-0.01629104987276195
14.38,-0.01626648043789233
14.384,-0.016167529563211942
14.388,-0.01615755273789796
14.392,-0.016179333469788247
14.396,-0.016251431058021116
14.4,-0.01627304350611093
14.404,-0.016228111731383606
14.408,-0.016206114634606993
14.412,-0.016193926079343883
14.416,-0.016191570106137206
14.42,-0.01619094505202115
14.424,-0.01619221920079619
14.428,-0.016184958956832758
14.432,-0.016187964024698416
14.436,-0.016150100169591126
14.44,-0.016055212146665113
14.444,-0.016123006477714356
14.448,-0.016306171374261942
14.452,-0.016293405845968625
14.456,-0.01622698182586612
14.46,-0.016195849322777903
14.464,-0.016373917624225333
14.468,-0.016299103454641913
14.472,-0.016228736785499662
14.476,-0.016312205550536182
14.48,-0.016277563128180877
14.484,-0.016269822073358944
14.488,-0.016279991223016328
14.492,-0.01625861918035577
14.496,-0.016251358936392343
14.5,-0.016246815273779462
14.504,-0.016237054813351807
14.508000000000001,-0.016221067852306505
14.512,-0.016196450336351035
14.516,-0.016248738517213486
14.52,-0.016261672329307277
14.524000000000001,-0.016230155177532256
14.528,-0.016208470607813667
14.532,-0.016156062224236593
14.536,-0.016206282918407467
14.540000000000001,-0.016303671157797715
14.544,-0.01625962888315863
14.548,-0.016137382722383662
14.552,-0.016104759705634082
14.556000000000001,-0.016256359369320794
14.56,-0.016379495030183995
14.564,-0.01627162511407834
14.568,-0.01622683758260857
14.572000000000001,-0.016204816445289028
14.576,-0.016103076867629313
14.58,-0.016158634562329598
14.584,-0.01627862091206959
14.588000000000001,-0.016213422959656273
14.592,-0.016213951851600628
14.596,-0.016193517390114154
14.6,-0.016108125381643617
14.604000000000001,-0.016142719722913073
14.608,-0.01622414504180094
14.612,-0.016248305787440832
14.616,-0.016235131569917783
14.620000000000001,-0.016188444835556922
14.624,-0.016183396321542618
14.628,-0.016184189659459152
14.632,-0.016197772566211924
14.636000000000001,-0.016199816012360573
14.64,-0.01617683325332402
14.644,-0.016093436609916283
14.648,-0.016061150160767652
14.652000000000001,-0.016115842395922626
14.656,-0.016383293435966187
14.66,-0.016306267536433643
14.664,-0.01623032346133273
14.668000000000001,-0.016249844382188048
14.672,-0.016249339530786618
14.676,-0.01623291983996866
14.68,-0.016243088989626047
14.684000000000001,-0.01623008305590348
14.688,-0.016213062351512392
14.692,-0.016208278283470264
14.696,-0.01621683671675166
14.700000000000001,-0.016218952284529083
14.704,-0.01621438458137328
14.708,-0.016209191824101424
14.712,-0.016127429937612604
14.716000000000001,-0.016040018523536346
14.72,-0.016232246704766754
14.724,-0.016375720664944728
14.728,-0.01626208101853701
14.732000000000001,-0.016158033548756466
14.736,-0.016280231628445583
14.74,-0.016337616404408187
14.744,-0.01627400512782794
14.748000000000001,-0.016193349106313676
14.752,-0.016111178530595127
14.756,-0.016232150542595053
14.76,-0.016397116748148213
14.764000000000001,-0.016327831903437603
14.768,-0.01629213169719359
14.772,-0.016253065814940036
14.776,-0.016257825842439236
14.780000000000001,-0.016270927938333506
14.784,-0.016259148072300125
14.788,-0.016256503612578348
14.792,-0.016230347501875658
14.796000000000001,-0.016192171119710337
14.8,-0.016181977929510028
14.804,-0.016080334514022014
14.808,-0.01616399560340193
14.812000000000001,-0.016432696751677602
14.816,-0.016335284471744434
14.82,-0.016259148072300125
14.824,-0.016280832642018715
14.828000000000001,-0.01636358019076747
14.832,-0.016335645079888314
14.836,-0.016302036400878794
14.84,-0.016287419750780237
14.844000000000001,-0.01628054415550361
14.848,-0.016269485505757988
14.852,-0.01624893084155689
14.856,-0.0162796786959583
14.86,-0.016291121994390725
14.864,-0.016241814840851007
14.868,-0.016171015441936106
14.872,-0.016156062224236593
14.876,-0.01614050799296395
14.88,-0.01644368327979445
14.884,-0.01647366183682225
14.888,-0.016296675359806462
14.892,-0.016293958778455908
14.896,-0.016360094312043306
14.9,-0.016329033930583867
14.904,-0.016299488103328718
14.908,-0.016283092453053687
14.912,-0.016249267409157844
14.916,-0.016157336373011633
14.92,-0.016286217723633974
14.924,-0.016352954270794504
14.928,-0.016285953277661795
14.932,-0.016336919228663354
14.936,-0.016263162842968644
14.94,-0.01626181657256483
14.944,-0.016259869288587882
14.948,-0.016222991095740526
14.952,-0.01628912662932793
14.956,-0.016309945739501206
14.96,-0.016315186577858916
14.964,-0.016249411652415394
14.968,-0.016201162282764386
14.972,-0.016154643832204003
14.976,-0.01630804653661011
14.98,-0.016362378163621207
14.984,-0.016289703602358135
14.988,-0.01635297831133743
14.992,-0.016339347323498805
14.996,-0.016284751250515532
15.0,-0.016281650020478173
15.004,-0.01630456065788595
15.008000000000001,-0.016299247697899467
15.012,-0.016291338359277055
15.016,-0.01628571287223254
15.02,-0.01621277386499729
15.024000000000001,-0.016131444708281123
15.028,-0.016304897225486902
15.032,-0.016373917624225333
15.036,-0.016277803533610132
15.040000000000001,-0.01631927347015621
15.044,-0.016243473638312852
15.048,-0.016280303750074356
15.052,-0.01635362740599641
15.056000000000001,-0.01633165434976272
15.06,-0.01632165348390581
15.064,-0.016297324454465443
15.068,-0.016286410047977373
15.072000000000001,-0.01627547160094638
15.076,-0.016269317221957513
15.08,-0.016263860018713477
15.084,-0.01626450911337246
15.088000000000001,-0.016270375005846223
15.092,-0.016269004694899485
15.096,-0.01621469710843131
15.1,-0.016068602729074486
15.104000000000001,-0.016201667134165817
15.108,-0.016440509928128313
15.112,-0.016273428154797733
15.116,-0.016302973982052882
15.120000000000001,-0.01631936963232791
15.124,-0.016278572830983738
15.128,-0.016361729068962223
15.132,-0.01636564767745904
15.136000000000001,-0.016323817132769085
15.14,-0.01629044885918882
15.144,-0.016261528086049727
15.148,-0.016372258826763488
15.152000000000001,-0.016345213215972567
15.156,-0.016313479699311222
15.16,-0.016309440888099776
15.164,-0.0163025172117373
15.168000000000001,-0.016295353129945574
15.172,-0.016283116493596615
15.176,-0.01624893084155689
15.18,-0.016187964024698416
15.184000000000001,-0.016164115806116555
15.188,-0.01629698788686449
15.192,-0.016340621472273845
15.196,-0.016385985976773817
15.200000000000001,-0.016356295906261115
15.204,-0.016302156603593423
15.208,-0.016309104320498823
15.212,-0.016389640139298455
15.216000000000001,-0.01634458816185651
15.22,-0.01632727897095032
15.224,-0.016319922564815192
15.228,-0.016310787158503592
15.232000000000001,-0.01630511359037323
15.236,-0.016303863482141117
15.24,-0.0162842463991141
15.244,-0.016152816750941684
15.248000000000001,-0.016125049923863002
15.252,-0.016377259259691943
15.256,-0.016488615054521767
15.26,-0.016377764111093374
15.264000000000001,-0.01631278252356639
15.268,-0.016230034974817627
15.272,-0.0162386655297278
15.276,-0.016397140788691138
15.280000000000001,-0.016376946732633915
15.284,-0.01633821741798132
15.288,-0.016332447687679254
15.292,-0.01632677411954889
15.296000000000001,-0.016320763983817575
15.3,-0.016310931401761142
15.304,-0.01631261423976591
15.308,-0.016271024100505207
15.312000000000001,-0.016217774297925744
15.316,-0.01622236604162447
15.32,-0.016327110687149846
15.324,-0.01633444305274205
15.328000000000001,-0.01633845782341057
15.332,-0.01629242018370869
15.336,-0.01620911970247265
15.34,-0.016290376737560043
15.344000000000001,-0.0163001371979877
15.348,-0.016327158768235695
15.352,-0.016353507203281784
15.356,-0.01639545795068637
15.36,-0.01635079062193123
15.364,-0.016257537355924133
15.368,-0.016278236263382786
15.372,-0.016305546320145883
15.376,-0.01634901162175476
15.38,-0.016352882149165728
15.384,-0.016323456524625204
15.388,-0.016270879857247653
15.392,-0.01616627945497983
15.396,-0.01624929144970077
15.4,-0.016378869976067936
15.404,-0.016289198750956704
15.408,-0.016259220193928902
15.412,-0.01627821222283986
15.416,-0.016351992649077492
15.42,-0.01640199697836204
15.424,-0.016316941537492458
15.428,-0.016287107223722206
15.432,-0.01629405494062761
15.436,-0.016360815528331064
15.44,-0.016371056799617225
15.444,-0.016326605835748416
15.448,-0.016269701870644318
15.452,-0.016303743279426488
15.456,-0.016299031333013136
15.46,-0.016287275507522684
15.464,-0.016249579936215872
15.468,-0.016264845680973413
15.472,-0.016409882276441527
15.476,-0.016395265626342966
15.48,-0.016308527347468616
15.484,-0.01624224757062366
15.488,-0.016216283784264377
15.492,-0.016347473027007543
15.496,-0.016306556022948747
15.5,-0.016305450157974185
15.504,-0.0163571373252635
15.508000000000001,-0.016340044499243637
15.512,-0.016198734187928936
15.516,-0.016303142265853356
15.52,-0.016440197401070285
15.524000000000001,-0.016307325320322353
15.528,-0.01622414504180094
15.532,-0.016366897785691156
15.536,-0.016392068234133906
15.540000000000001,-0.016357353690149828
15.544,-0.01632932241709897
15.548,-0.016308839874526644
15.552,-0.016299464062785794
15.556000000000001,-0.0162956656570036
15.56,-0.01630177195490662
15.564,-0.0162977571842381
15.568,-0.01629273271076672
15.572000000000001,-0.016258739383070396
15.576,-0.0161751023342334
15.58,-0.01615034057502038
15.584,-0.016298430319440005
15.588000000000001,-0.016408968735810367
15.592,-0.01638043261135808
15.596,-0.016403247086594155
15.6,-0.01634408331045508
15.604000000000001,-0.016289487237471808
15.608,-0.01626770650558152
15.612,-0.016358772082182418
15.616,-0.016314128793970203
15.620000000000001,-0.01626648043789233
15.624,-0.01625486885565943
15.628,-0.016328505038639512
15.632,-0.016338962674812
15.636000000000001,-0.016291338359277055
15.64,-0.016265254370203142
15.644,-0.016150941588593513
15.648,-0.016228736785499662
15.652000000000001,-0.0164255567104288
15.656,-0.016372234786220564
15.66,-0.01634242451299324
15.664,-0.016311075645018696
15.668000000000001,-0.01630958513135733
15.672,-0.016350862743560006
15.676,-0.016307709969009158
15.68,-0.016303983684855743
15.684000000000001,-0.016244411219486936
15.688,-0.01627313966828263
15.692,-0.01639067388264424
15.696,-0.016362017555477327
15.700000000000001,-0.01632790402506638
15.704,-0.01624748840898137
15.708,-0.0161612069004226
15.712,-0.016304584698428874
15.716000000000001,-0.01634540554031597
15.72,-0.01637567258385888
15.724,-0.016391515301646627
15.728,-0.016313455658768294
15.732000000000001,-0.01630494530657275
15.736,-0.016285352264088664
15.74,-0.016247752854953553
15.744,-0.016341222485846976
15.748000000000001,-0.01638103362493121
15.752,-0.01632150924064826
15.756,-0.01629922365735654
15.76,-0.016292299980994063
15.764000000000001,-0.016272490573623646
15.768,-0.01619652245797981
15.772,-0.01614394579060226
15.776,-0.01627506291171665
15.780000000000001,-0.016366537177547276
15.784,-0.01632417774091296
15.788,-0.016393991477567926
15.792,-0.01637850936792406
15.796000000000001,-0.0162842463991141
15.8,-0.01629424726497101
15.804,-0.016318215686267498
15.808,-0.0163046087389718
15.812000000000001,-0.016362017555477327
15.816,-0.016330668687502783
15.82,-0.016306700266206297
15.824,-0.01629068926461807
15.828000000000001,-0.016260229896731763
15.832,-0.01622546727166183
15.836,-0.01626657660006403
15.84,-0.016308936036698345
15.844000000000001,-0.016284005993684847
15.848,-0.016217918541183294
15.852,-0.01630571460394636
15.856,-0.01633840974232472
15.860000000000001,-0.01634651140529053
15.864,-0.016282395277308855
15.868,-0.016240564732618895
15.872,-0.01629571373808945
15.876,-0.016348795256868432
15.88,-0.016379735435613246
15.884,-0.016327014524978145
15.888,-0.01631932155124206
15.892,-0.01630319034693921
15.896,-0.016271096222133984
15.9,-0.016231212961420965
15.904,-0.01628003930410218
15.908,-0.016329033930583867
15.912,-0.016291723007963856
15.916,-0.01621272578391144
15.92,-0.016247151841380415
15.924,-0.016325283605887527
15.928,-0.016380096043757127
15.932,-0.0162955694948319
15.936,-0.01629059310244637
15.94,-0.01633941944512758
15.944,-0.016338842472097374
15.948,-0.016300714171017906
15.952,-0.016336053769118043
15.956,-0.016351511838218986
15.96,-0.01632174964607751
15.964,-0.016310354428730935
15.968,-0.016316941537492458
15.972,-0.01630648390131997
15.976,-0.01621003324310381
15.98,-0.016159139413731028
15.984,-0.016351680122019464
15.988,-0.016275639884746857
15.992,-0.016275207154974203
15.996,-0.01637439843508384
16.0,-0.016325788457288958
16.004,-0.016272394411451948
16.008,-0.01635636802788989
16.012,-0.016403150924422454
16.016000000000002,-0.01634357845905365
16.02,-0.01632403349765541
16.024,-0.01634216006702106
16.028,-0.016336823066491653
16.032,-0.0163226872272516
16.036,-0.016311676658591828
16.04,-0.016302541252280225
16.044,-0.016279294047271495
16.048000000000002,-0.0162614078833351
16.052,-0.0161635869141722
16.056,-0.016286914899378804
16.06,-0.01639230863956316
16.064,-0.01626761034340982
16.068,-0.0162389540162429
16.072,-0.01635098294627463
16.076,-0.016457578713605252
16.080000000000002,-0.01640579538414423
16.084,-0.016349348189355715
16.088,-0.016357762379379557
16.092,-0.016363652312396247
16.096,-0.01633997237761486
16.1,-0.01633571720151709
16.104,-0.016330428282073532
16.108,-0.016320475497302474
16.112000000000002,-0.016314056672341426
16.116,-0.016312710401937613
16.12,-0.016279342128357348
16.124,-0.016181424997022745
16.128,-0.016198037012184103
16.132,-0.016286818737207106
16.136,-0.01636564767745904
16.14,-0.016364782217913734
16.144000000000002,-0.01633956368838513
16.148,-0.016354637108799273
16.152,-0.016427047224090163
16.156,-0.016362233920363654
16.16,-0.0163342988094845
16.164,-0.01631460960482871
16.168,-0.016298430319440005
16.172,-0.016313071010081493
16.176000000000002,-0.016315402942745243
16.18,-0.01630571460394636
16.184,-0.016307734009552082
16.188,-0.016291530683620457
16.192,-0.016294535751486115
16.196,-0.016278043939039383
16.2,-0.01612293435608558
16.204,-0.016147888439642002
16.208000000000002,-0.016404112546139462
16.212,-0.016408055195179207
16.216,-0.016372018421334237
16.22,-0.01637230690784934
16.224,-0.01632227853802187
