0.0,-0.017920758277665566
0.004,-0.017920662115493865
0.008,-0.017908377398059058
0.012,-0.017906213749195782
0.016,-0.017903497167845228
0.02,-0.01790304039752965
0.024,-0.01790972366846287
0.028,-0.017914315412161597
0.032,-0.017908401438601982
0.036000000000000004,-0.017902848073186248
0.04,-0.017898448653830924
0.044,-0.01789202982886988
0.048,-0.01789847269437385
0.052000000000000005,-0.017898352491659223
0.056,-0.017887630409514556
0.06,-0.017883255030702157
0.064,-0.01788162027378324
0.068,-0.017878086313973224
0.07200000000000001,-0.017879817233063845
0.076,-0.01789126053149627
0.08,-0.01789150093692552
0.084,-0.017884144530790392
0.088,-0.01788404836861869
0.092,-0.017879047935690236
0.096,-0.01788010571957895
0.1,-0.017886668787797544
0.10400000000000001,-0.017886813031055097
0.108,-0.017883904125361137
0.112,-0.01788008167903602
0.116,-0.01787404750276178
0.12,-0.017834284444763395
0.124,-0.017825918335825405
0.128,-0.017819499510864357
0.132,-0.0178213506326696
0.136,-0.017817071416028906
0.14,-0.017818634051319046
0.14400000000000002,-0.017823442159904102
0.148,-0.017826639552113163
0.152,-0.017827673295458948
0.156,-0.017823321957189477
0.16,-0.017821639119184704
0.164,-0.017823081551760222
0.168,-0.017819114862177552
0.17200000000000001,-0.01781384998327692
0.176,-0.017810820874868336
0.18,-0.017810123699123503
0.184,-0.017811926739842898
0.188,-0.017809570766636224
0.192,-0.017804642455336545
0.196,-0.017805964685197434
0.2,-0.017808296617861184
0.20400000000000001,-0.01781060450998201
0.20800000000000002,-0.017808080252974857
0.212,-0.01780776772591683
0.216,-0.01780892167197724
0.22,-0.01780658973931349
0.224,-0.01780603680682621
0.228,-0.017807479239401725
0.232,-0.017805892563568657
0.23600000000000002,-0.017806397414970088
0.24,-0.017806565698770566
0.244,-0.017800531522496325
0.248,-0.017795098359795213
0.252,-0.017793511683962145
0.256,-0.017794833913823038
0.26,-0.01779557917065372
0.264,-0.017798488076347676
0.268,-0.01780187779290014
0.272,-0.017796468670741954
0.276,-0.017792021170300782
0.28,-0.0177915643999852
0.28400000000000003,-0.017785650426425586
0.28800000000000003,-0.017787285183344503
0.292,-0.017792501981159285
0.296,-0.017795507049024942
0.3,-0.017791251872927173
0.304,-0.017792357737901734
0.308,-0.01778913630514975
0.312,-0.017777741087803174
0.316,-0.017773269546819074
0.32,-0.017772812776503496
0.324,-0.017770625087097296
0.328,-0.01776365332964897
0.332,-0.017760191491467733
0.336,-0.017761994532187127
0.34,-0.017763917775621148
0.34400000000000003,-0.017768341235519396
0.34800000000000003,-0.017770216397867567
0.352,-0.0177688220463779
0.356,-0.017772163681844512
0.36,-0.017770264478953416
0.364,-0.01777031256003927
0.368,-0.01777680350662909
0.372,-0.017781275047613187
0.376,-0.01777608229034133
0.38,-0.017771995398044037
0.384,-0.0177731974251903
0.388,-0.017776563101199835
0.392,-0.01777846230409093
0.396,-0.017777548763459772
0.4,-0.017774183087450237
0.404,-0.017770360641125117
0.40800000000000003,-0.017770985695241177
0.41200000000000003,-0.017766225667741973
0.41600000000000004,-0.017762643626846108
0.42,-0.01776209069435883
0.424,-0.01776009532929603
0.428,-0.01775757107228888
0.432,-0.017754397720622744
0.436,-0.017751104166241982
0.44,-0.017747954855118774
0.444,-0.017748916476835783
0.448,-0.01774898859846456
0.452,-0.017749373247151364
0.456,-0.01775081567972688
0.46,-0.017752618720446273
0.464,-0.01775913370757902
0.468,-0.01776045593743991
0.47200000000000003,-0.017757186423602075
0.47600000000000003,-0.017757426829031326
0.48,-0.01775872501834929
0.484,-0.017753748625963763
0.488,-0.017757955720975684
0.492,-0.017761393518613996
0.496,-0.01775543146396853
0.5,-0.017748796274121157
0.504,-0.017746993233401762
0.508,-0.017743892003364403
0.512,-0.017739107935322275
0.516,-0.01773528548899716
0.52,-0.017734395988908924
0.524,-0.01773547781334056
0.528,-0.017733530529363616
0.532,-0.01773533357008301
0.536,-0.017733386286106063
0.54,-0.017730020610096528
0.544,-0.017730958191270612
0.548,-0.017734155583479672
0.552,-0.017736030745827844
0.556,-0.017738362678491593
0.56,-0.01773756934057506
0.5640000000000001,-0.017731198596699863
0.5680000000000001,-0.01772372198785011
0.5720000000000001,-0.017725452906940727
0.5760000000000001,-0.017727135744945496
0.58,-0.01772776079906155
0.584,-0.017726077961056783
0.588,-0.017728914745121966
0.592,-0.01772624624485726
0.596,-0.017723986433822284
0.6,-0.0177207650010703
0.604,-0.01772278440667602
0.608,-0.017723697947307184
0.612,-0.01772482785282467
0.616,-0.017726270285400185
0.62,-0.017718769636007502
0.624,-0.01771396152742245
0.628,-0.017717783973747566
0.632,-0.017721438136272208
0.636,-0.017723217136448678
0.64,-0.01772391431219351
0.644,-0.017718000338633896
0.648,-0.017715788608684772
0.652,-0.017721582379529758
0.656,-0.0177229526904765
0.66,-0.0177207650010703
0.664,-0.017713841324707824
0.668,-0.017710812216299242
0.672,-0.017703119242563157
0.676,-0.017701244080214985
0.68,-0.017701340242386687
0.684,-0.017699777607096547
0.6880000000000001,-0.017702590350618802
0.6920000000000001,-0.0177092495810091
0.6960000000000001,-0.017710836256842166
0.7000000000000001,-0.017709321702637875
0.704,-0.01770879281069352
0.708,-0.01770920149992325
0.712,-0.017703984702108468
0.716,-0.017701917215416894
0.72,-0.017697637998776196
0.724,-0.017698719823207833
0.728,-0.017698984269180013
0.732,-0.017696532133801634
0.736,-0.017695017579597343
0.74,-0.01769249332259019
0.744,-0.017685281159712612
0.748,-0.01768472822722533
0.752,-0.017683045389220563
0.756,-0.017680352848412934
0.76,-0.017684800348854106
0.764,-0.01768763713291929
0.768,-0.017688718957350923
0.772,-0.017694055957880334
0.776,-0.01769314241724917
0.78,-0.01768761309237636
0.784,-0.017685713889485265
0.788,-0.01768482438939703
0.792,-0.01768494459211166
0.796,-0.017686483186858875
0.8,-0.01768249245673328
0.804,-0.017679583551039324
0.808,-0.017682035686417703
0.812,-0.01767535241548448
0.8160000000000001,-0.017670856833957454
0.8200000000000001,-0.017674102307252363
0.8240000000000001,-0.017675713023628355
0.8280000000000001,-0.017679078699637894
0.8320000000000001,-0.017684199335280974
0.836,-0.017680352848412934
0.84,-0.017677179496746798
0.844,-0.01767609767231516
0.848,-0.01767814111846381
0.852,-0.01767362149639386
0.856,-0.017675881307428833
0.86,-0.017682011645874775
0.864,-0.017683381956821516
0.868,-0.017680352848412934
0.872,-0.01767559282091373
0.876,-0.017673092604449502
0.88,-0.01767138572590181
0.884,-0.01767362149639386
0.888,-0.017677035253489248
0.892,-0.017676241915572714
0.896,-0.017671505928616434
0.9,-0.017668452779664928
0.904,-0.017672707955762697
0.908,-0.017671770374588613
0.912,-0.017672780077391474
0.916,-0.017668164293149824
0.92,-0.017660855968100544
0.924,-0.01766179354927463
0.928,-0.017660375157242038
0.932,-0.017663644671079875
0.936,-0.017663788914337425
0.9400000000000001,-0.017662370522304835
0.9440000000000001,-0.01765996646801231
0.9480000000000001,-0.017660375157242038
0.9520000000000001,-0.017658788481408973
0.9560000000000001,-0.017656384427116447
0.96,-0.017660904049186396
0.964,-0.017660278995070337
0.968,-0.017659702022040133
0.972,-0.01765580745408624
0.976,-0.017650614696814382
0.98,-0.017650302169756354
0.984,-0.01765285046730643
0.988,-0.01765143207527384
0.992,-0.01765047045355683
0.996,-0.017651528237445542
1.0,-0.017652537940248403
1.004,-0.01765066277790023
1.008,-0.01765174460233187
1.012,-0.017651864805046494
1.016,-0.017649941561612474
1.02,-0.01764717689917607
1.024,-0.017647008615375593
1.028,-0.0176500617643271
1.032,-0.017647345182976545
1.036,-0.01764244091221979
1.04,-0.017640661912043325
1.044,-0.017639556047068763
1.048,-0.017637392398205488
1.052,-0.017640036857927265
1.056,-0.01764143120941693
1.06,-0.01764236879059102
1.064,-0.01764722498026192
1.068,-0.01764681629103219
1.072,-0.017643402533936803
1.076,-0.01763859442535175
1.08,-0.01764143120941693
1.084,-0.017641863939189588
1.088,-0.017639556047068763
1.092,-0.01764429203402504
1.096,-0.017647777912749203
1.1,-0.017648691453380362
1.104,-0.017636358654859702
1.108,-0.017632175600390706
1.112,-0.01763183903278975
1.116,-0.01763429116816813
1.12,-0.01763251216799166
1.124,-0.017628737802752394
1.1280000000000001,-0.017628016586464634
1.1320000000000001,-0.01762570869434381
1.1360000000000001,-0.017624723032083872
1.1400000000000001,-0.017629242654153825
1.1440000000000001,-0.01762782426212123
1.1480000000000001,-0.017623977775253187
1.1520000000000001,-0.01762568465380088
1.156,-0.017629579221754777
1.16,-0.01763580572237242
1.164,-0.017633401668079893
1.168,-0.017629795586641104
1.172,-0.01762563657271503
1.176,-0.017621717964218214
1.18,-0.01761796763952187
1.184,-0.017613279733651448
1.188,-0.017614097112110906
1.192,-0.017615996315002002
1.196,-0.01761823208549405
1.2,-0.01761493853111329
1.204,-0.01761275084170709
1.208,-0.017616501166403432
1.212,-0.01761407307156798
1.216,-0.017615731869029823
1.22,-0.017618208044951126
1.224,-0.017617438747577516
1.228,-0.017616092477173703
1.232,-0.017619289869382763
1.236,-0.017622222815619645
1.24,-0.017616236720431253
1.244,-0.017612366193020285
1.248,-0.017612005584876408
1.252,-0.017615683787943974
1.256,-0.01761037082795749
1.26,-0.017608038895293738
1.264,-0.017608279300722993
1.268,-0.0176091447602683
1.272,-0.017607197476291355
1.276,-0.01760758212497816
1.28,-0.017612077706505185
1.284,-0.017613592260709476
1.288,-0.01761407307156798
1.292,-0.017611717098361304
1.296,-0.017610947800987695
1.3,-0.017609024557553674
1.304,-0.017610995882073547
1.308,-0.01760722151683428
1.312,-0.01760808697637959
1.316,-0.01761041890904334
1.32,-0.017611356490217424
1.324,-0.01760986597655606
1.328,-0.01760397604353937
1.332,-0.017597533178035397
1.336,-0.017596283069803285
1.34,-0.017593638610081508
1.344,-0.017592244258591842
1.348,-0.01759164324501871
1.352,-0.017592244258591842
1.356,-0.017596018623831106
1.36,-0.01759621094817451
1.364,-0.017592845272164974
1.368,-0.01759041717732952
1.372,-0.01759260486673572
1.3760000000000001,-0.017595682056230154
1.3800000000000001,-0.01759818227269438
1.3840000000000001,-0.01760265381367848
1.3880000000000001,-0.01759229233967769
1.3920000000000001,-0.01759027293407197
1.3960000000000001,-0.0175908739476451
1.4000000000000001,-0.017588566055524276
1.4040000000000001,-0.01758834969063795
1.408,-0.017589022825839854
1.412,-0.01758483977137086
1.416,-0.017585416744401065
1.42,-0.0175862100823176
1.424,-0.017588974744754005
1.428,-0.017589215150183257
1.432,-0.017585440784943993
1.436,-0.017586522609375627
1.44,-0.017589936366471017
1.444,-0.017590128690814416
1.448,-0.01759246062347817
1.452,-0.017594455988540966
1.456,-0.017583998352368475
1.46,-0.017577819932836684
1.464,-0.01758219531164908
1.468,-0.017574021527054492
1.472,-0.0175726992971936
1.476,-0.017579190243783422
1.48,-0.01757693043274845
1.484,-0.017581257730474996
1.488,-0.017584286838883578
1.492,-0.017586690893176105
1.496,-0.01758676301480488
1.5,-0.01758832565009502
1.504,-0.017588205447380396
1.508,-0.01758690725806243
1.512,-0.017587099582405834
1.516,-0.0175886862582389
1.52,-0.017591835569362113
1.524,-0.017583084811737315
1.528,-0.017570968378102982
1.532,-0.017572362729592648
1.536,-0.017573684959453537
1.54,-0.017575728405602186
1.544,-0.017579382568126824
1.548,-0.0175794546897556
1.552,-0.0175794546897556
1.556,-0.01758205106839153
1.56,-0.017583301176623642
1.564,-0.01758270016305051
1.568,-0.017578276703152262
1.572,-0.017580055703328733
1.576,-0.01758575331200202
1.58,-0.017588710298781826
1.584,-0.017591162434160205
1.588,-0.01758671493371903
1.592,-0.017579430649212677
1.596,-0.017577002554377223
1.6,-0.017578396905866888
1.604,-0.01757890175726832
1.608,-0.017577771851750832
1.612,-0.017580584595273088
1.616,-0.017578060338265936
1.62,-0.017576834270576748
1.624,-0.01757666598677627
1.6280000000000001,-0.017579286405955123
1.6320000000000001,-0.017577050635463075
1.6360000000000001,-0.017577651649036206
1.6400000000000001,-0.017575103351486127
1.6440000000000001,-0.017575536081258784
1.6480000000000001,-0.01757733912197818
1.6520000000000001,-0.01757592072994559
1.6560000000000001,-0.017577603567950354
1.6600000000000001,-0.017571665553847815
1.6640000000000001,-0.01756392449902588
1.668,-0.01756103963387485
1.672,-0.017554572727827955
1.676,-0.017556856579405852
1.68,-0.017553202416881214
1.684,-0.017556544052347824
1.688,-0.01756200125559186
1.692,-0.01756459763422779
1.696,-0.01756500632345752
1.7,-0.017564044701740507
1.704,-0.017564934201828742
1.708,-0.017569165337383588
1.712,-0.017570030796928898
1.716,-0.017563251363823973
1.72,-0.01756022225541539
1.724,-0.01756087135007437
1.728,-0.01756231378264989
1.732,-0.01756676128309106
1.736,-0.01756921341846944
1.74,-0.017567362296664193
1.744,-0.017568131594037802
1.748,-0.01756358793142493
1.752,-0.01756464571531364
1.756,-0.017563684093596627
1.76,-0.017562986917851797
1.764,-0.01756616026951793
1.768,-0.01756524672888677
1.772,-0.017559933768900287
1.776,-0.01755469293054258
1.78,-0.017556856579405852
1.784,-0.01755981356618566
1.788,-0.017556135363118095
1.792,-0.01755022138955848
1.796,-0.017549091484040994
1.8,-0.01755173594376277
1.804,-0.01755464484945673
1.808,-0.017560078012157837
1.812,-0.017560414579758793
1.816,-0.017557722038951163
1.82,-0.01755406787642652
1.824,-0.0175473846054933
1.828,-0.017552024430277875
1.832,-0.017554308281855776
1.836,-0.017555029498143533
1.84,-0.017552360997878828
1.844,-0.017550365632816034
1.848,-0.017553130295252437
1.852,-0.01755173594376277
1.856,-0.017548274105581536
1.86,-0.017550341592273106
1.864,-0.017555678592802517
1.868,-0.017551856146477397
1.872,-0.01754885107861174
1.8760000000000001,-0.017547456727122074
1.8800000000000001,-0.0175405330507596
1.8840000000000001,-0.017538826172211905
1.8880000000000001,-0.01753947526687089
1.8920000000000001,-0.017541013861618104
1.8960000000000001,-0.017542552456365323
1.9000000000000001,-0.017543033267223826
1.9040000000000001,-0.017542095686049742
1.9080000000000001,-0.017547336524407448
1.9120000000000001,-0.017546951875720643
1.9160000000000001,-0.017544115091655463
1.92,-0.017542600537451172
1.924,-0.017539956077729395
1.928,-0.01754154275356246
1.932,-0.017542432253650694
1.936,-0.01754139851030491
1.94,-0.017543441956453555
1.944,-0.017547168240606974
1.948,-0.01754856259209664
1.952,-0.01753971567230014
1.956,-0.017533056441909844
1.96,-0.017532623712137187
1.964,-0.017535172009687267
1.968,-0.01753281603648059
1.972,-0.0175315899687914
1.976,-0.01753392190145515
1.98,-0.017533657455482975
1.984,-0.017534258469056107
1.988,-0.017533657455482975
1.992,-0.01752906571178425
1.996,-0.017529426319928126
2.0,-0.017527262671064855
2.004,-0.017530604306531465
2.008,-0.01753267179322304
2.012,-0.017534402712313657
2.016,-0.017536830807149108
2.02,-0.01753089279304657
2.024,-0.01752642125206247
2.028,-0.01752997925241541
2.032,-0.01752627700880492
2.036,-0.017525844279032265
2.04,-0.017527959846809688
2.044,-0.01752870510364037
2.048,-0.01752613276554737
2.052,-0.01752413740048457
2.056,-0.017525483670888384
2.06,-0.017524209522113345
2.064,-0.017523560427454364
2.068,-0.017521637184020344
2.072,-0.01752240648139395
2.076,-0.017521060210990137
2.08,-0.01752185354890667
2.084,-0.01751875231886931
2.088,-0.017515771291546578
2.092,-0.01751043429101717
2.096,-0.017511179547847852
2.1,-0.017517526251180124
2.104,-0.017515386642859773
2.108,-0.017512333493908266
2.112,-0.017513150872367725
2.116,-0.017514761588743717
2.12,-0.017522045873250073
2.124,-0.01752459417080015
2.128,-0.01752916187395595
2.132,-0.01753021965784466
2.136,-0.017529089752327174
2.14,-0.0175291137928701
2.144,-0.017533849779826378
2.148,-0.017533032401366916
2.152,-0.017527190549436078
2.156,-0.017522935373338308
2.16,-0.017523656589626065
2.164,-0.017518223426924957
2.168,-0.01751839171072543
2.172,-0.01751663675109189
2.176,-0.01751596361588998
2.18,-0.017519545656785845
2.184,-0.017522791130080755
2.188,-0.017519906264929722
2.192,-0.017519617778414622
2.196,-0.017520915967732587
2.2,-0.017523247900396336
2.204,-0.01752545963034546
2.208,-0.017521276575876463
2.212,-0.01751252581825167
2.216,-0.01751134783164833
2.22,-0.017520122629816053
2.224,-0.017524161441027496
2.228,-0.017518992724298563
2.232,-0.017515146237430522
2.236,-0.017516564629463112
2.24,-0.017520675562303332
2.244,-0.017521372738048165
2.248,-0.017523488305825587
2.2520000000000002,-0.017521973751621296
2.2560000000000002,-0.017521685265106193
2.2600000000000002,-0.01752469033297185
2.2640000000000002,-0.017524522049171376
2.2680000000000002,-0.017521613143477416
2.2720000000000002,-0.017515675129374877
2.2760000000000002,-0.017517598372808897
2.2800000000000002,-0.017522382440851025
2.2840000000000003,-0.017528921468526696
2.2880000000000003,-0.017524305684285046
2.2920000000000003,-0.017511035304590302
2.2960000000000003,-0.017509256304413832
2.3000000000000003,-0.017510097723416218
2.3040000000000003,-0.01751069873698935
2.308,-0.01751418461571351
2.312,-0.0175156030077461
2.316,-0.017515675129374877
2.32,-0.01751855999452591
2.324,-0.017516396345662634
2.328,-0.017515386642859773
2.332,-0.017516997359235766
2.336,-0.01751714160249332
2.34,-0.017517261805207945
2.344,-0.017513848048112558
2.348,-0.017507068615007632
2.352,-0.017504376074200002
2.356,-0.017501803736107
2.36,-0.017497933208696033
2.364,-0.01750312596596789
2.368,-0.017506299317634026
2.372,-0.017509496709843086
2.376,-0.017514761588743717
2.38,-0.0175177906971523
2.384,-0.01751687715652114
2.388,-0.017517718575523526
2.392,-0.017516107859147534
2.396,-0.017511275710019553
2.4,-0.01751343935888283
2.404,-0.01751815130529618
2.408,-0.01751596361588998
2.412,-0.017519545656785845
2.416,-0.01751596361588998
2.42,-0.017503967384970273
2.424,-0.01750120272253387
2.428,-0.01750007281701638
2.432,-0.017501539290134822
2.436,-0.017504688601258034
2.44,-0.01750521749320239
2.444,-0.01750377506062687
2.448,-0.017505265574288238
2.452,-0.017505602141889193
2.456,-0.017504087587684902
2.46,-0.01750302980379619
2.464,-0.017504736682343883
2.468,-0.017508174479982194
2.472,-0.01751170843979221
2.476,-0.0175087514530124
2.48,-0.0175037991011698
2.484,-0.017501467168506046
2.488,-0.01749764472218093
2.492,-0.017497284114037052
2.496,-0.017498438060097463
2.5,-0.017497284114037052
2.504,-0.01749567339766106
2.508,-0.017495625316575208
2.512,-0.017497813005981407
2.516,-0.01749540895168888
2.52,-0.017493822275855813
2.524,-0.017494831978658674
2.528,-0.017499039073670595
2.532,-0.017501178681990942
2.536,-0.01750317404705374
2.54,-0.017504424155285855
2.544,-0.017508270642153895
2.548,-0.017501827776649926
2.552,-0.01749449541105772
2.556,-0.017492908735224653
2.56,-0.017494831978658674
2.564,-0.017495793600375686
2.568,-0.017494928140830375
2.572,-0.01750093827656169
2.576,-0.017505241533745313
2.58,-0.01750286151999571
2.584,-0.01750007281701638
2.588,-0.017498774627698416
2.592,-0.01749750047892338
2.596,-0.0174994237223574
2.6,-0.017500313222445635
2.604,-0.017502500911851834
2.608,-0.01750329424976837
2.612,-0.01749851018172624
2.616,-0.017490120032245322
2.62,-0.017487980423924975
2.624,-0.01749216347839397
2.628,-0.01749444732997187
2.632,-0.017494471370514797
2.636,-0.01749389439748459
2.64,-0.017497163911322423
2.644,-0.017501130600905093
2.648,-0.017501972019907476
2.652,-0.017499736249415428
2.656,-0.017496394613948817
2.66,-0.017497620681638005
2.664,-0.017501779695564074
2.668,-0.017505097290487763
2.672,-0.017502741317281086
2.676,-0.01749084124853308
2.68,-0.017485600410175373
2.684,-0.0174881006266396
2.688,-0.017486610112978234
2.692,-0.017485456166917823
2.696,-0.017484230099228632
2.7,-0.017482330896337536
2.704,-0.01748567253180415
2.708,-0.017488292950983003
2.712,-0.01748942285650049
2.716,-0.017491923072964717
2.72,-0.017494423289428945
2.724,-0.017496130167976638
2.728,-0.017494230965085542
2.732,-0.01749764472218093
2.736,-0.01749925543855692
2.74,-0.017497885127610184
2.744,-0.017495096424630853
2.748,-0.017487163045465517
2.7520000000000002,-0.01748221069362291
2.7560000000000002,-0.017485744653432923
2.7600000000000002,-0.01748617738320558
2.7640000000000002,-0.017487018802207963
2.7680000000000002,-0.01748915841052831
2.7720000000000002,-0.017489591140300968
2.7760000000000002,-0.017486970721122114
2.7800000000000002,-0.017488076586096676
2.7840000000000003,-0.017490865289076007
2.7880000000000003,-0.01749144226210621
2.7920000000000003,-0.017490985491790633
2.7960000000000003,-0.017492091356765195
2.8000000000000003,-0.017492932775767578
2.8040000000000003,-0.01749307701902513
2.8080000000000003,-0.017494759857029897
2.8120000000000003,-0.01749480793811575
2.816,-0.017488701640212732
2.82,-0.017482090490908285
2.824,-0.01748814870772545
2.828,-0.017484879193887616
2.832,-0.017484879193887616
2.836,-0.017485961018319254
2.84,-0.017479446031186507
2.844,-0.01748019128801719
2.848,-0.01748146543679223
2.852,-0.01748110482864835
2.856,-0.017481874126021958
2.86,-0.017477931476982213
2.864,-0.017478965220328
2.868,-0.017477402585037858
2.872,-0.01748055189616107
2.876,-0.017483364639683325
2.88,-0.01748415797759986
2.884,-0.017480479774532293
2.888,-0.01746968557075885
2.892,-0.01746942112478667
2.896,-0.01747617651734867
2.9,-0.01747749874720956
2.904,-0.017477210260694456
2.908,-0.01747745066612371
2.912,-0.017477282382323232
2.916,-0.017475839949747718
2.92,-0.01747531105780336
2.924,-0.017475527422689686
2.928,-0.01747745066612371
2.932,-0.017479253706843105
2.936,-0.017479854720416237
2.94,-0.017481585639506855
2.944,-0.017482306855794612
2.948,-0.017479229666300177
2.952,-0.01748170584222148
2.956,-0.017482907869367743
2.96,-0.01748064805833277
2.964,-0.017478316125669018
2.968,-0.0174743013550005
2.972,-0.017476008233548192
2.976,-0.017477979558068065
2.98,-0.017478051679696842
2.984,-0.017477642990467113
2.988,-0.0174743975171722
2.992,-0.017475479341603838
2.996,-0.01747745066612371
3.0,-0.01748170584222148
3.004,-0.017485023437145166
3.008,-0.017475431260517985
3.012,-0.017474878328030706
3.016,-0.01747372438197029
3.02,-0.017473820544141993
3.024,-0.017473556098169817
3.028,-0.01747641692277792
3.032,-0.017475190855088734
3.036,-0.01747353205762689
3.04,-0.017469156678814494
3.044,-0.017468171016554557
3.048,-0.0174650697865172
3.052,-0.01746115117802038
3.056,-0.01746095885367698
3.06,-0.01746384371882801
3.064,-0.017464012002628485
3.068,-0.01746531019194645
3.072,-0.017465189989231824
3.076,-0.017468844151756466
3.08,-0.017472281949394777
3.084,-0.01747343589545519
3.088,-0.01747413307120002
3.092,-0.017469637489673
3.096,-0.017463915840456784
3.1,-0.017463194624169027
3.104,-0.01746593524606251
3.108,-0.01746531019194645
3.112,-0.01745946834001561
3.116,-0.017462401286252493
3.12,-0.017465694840633254
3.124,-0.017470310624874905
3.128,-0.017473772463056144
3.132,-0.017469853854559327
3.136,-0.017469613449130072
3.14,-0.017472330030480626
3.144,-0.01747735450395201
3.148,-0.01747776319318174
3.152,-0.017474637922601455
3.156,-0.017481489477335153
3.16,-0.017478244004040244
3.164,-0.01747932582847188
3.168,-0.017480143206931337
3.172,-0.017477570868838336
3.176,-0.017471031841162665
3.18,-0.017466343935292238
3.184,-0.017466151610948836
3.188,-0.017467065151579995
3.192,-0.017465117867603047
3.196,-0.017461487745621333
3.2,-0.017458987529157106
3.204,-0.01746146370507841
3.208,-0.0174629782592827
3.212,-0.0174629782592827
3.216,-0.017465286151403525
3.22,-0.017467281516466322
3.224,-0.01747105588170559
3.228,-0.01747557550377554
3.232,-0.01747918158521433
3.236,-0.017475335098346284
3.24,-0.01747480620640193
3.244,-0.01748084038267617
3.248,-0.01747983067987331
3.2520000000000002,-0.017472666598081582
3.2560000000000002,-0.017469204759900343
3.2600000000000002,-0.017472281949394777
3.2640000000000002,-0.017469349003157896
3.2680000000000002,-0.01746543039466108
3.2720000000000002,-0.017459660664359014
3.2760000000000002,-0.017455693974776344
3.2800000000000002,-0.017454540028715933
3.2840000000000003,-0.01745542952880417
3.2880000000000003,-0.017456150745091926
3.2920000000000003,-0.017455092961203213
3.2960000000000003,-0.017457641258753293
3.3000000000000003,-0.01745922793458636
3.3040000000000003,-0.01746170411050766
3.3080000000000003,-0.01745826631286935
3.3120000000000003,-0.017464588975658692
3.3160000000000003,-0.017464709178373318
3.3200000000000003,-0.01746115117802038
3.3240000000000003,-0.01746283401602515
3.3280000000000003,-0.017465959286605433
3.332,-0.017467786367867753
3.336,-0.0174697336518447
3.34,-0.017463867759370935
3.344,-0.01746206471865154
3.348,-0.017456294988349476
3.352,-0.017453289920483818
3.356,-0.017452280217680957
3.36,-0.01745511700174614
3.364,-0.017454948717945663
3.368,-0.017454780434145185
3.372,-0.01745552569097587
3.376,-0.01745617478563485
3.38,-0.017453289920483818
3.384,-0.017457521056038667
3.388,-0.01745576609640512
3.392,-0.017453097596140416
3.396,-0.01745297739342579
3.4,-0.017452640825824838
3.404,-0.017457929745268396
3.408,-0.01746141562399256
3.412,-0.017458939448071257
3.416,-0.01745398709622865
3.42,-0.01745485255577396
3.424,-0.017454564069258858
3.428,-0.017454636190887635
3.432,-0.01745360244754185
3.436,-0.01745201577170878
3.44,-0.01745059737967619
3.444,-0.01745023677153231
3.448,-0.017449251109272375
3.452,-0.017452448501481435
3.456,-0.017459420258929763
3.46,-0.017457400853324038
3.464,-0.017456463272149954
3.468,-0.017456655596493356
3.472,-0.017453265879940894
3.476,-0.017451775366279527
3.48,-0.017454540028715933
3.484,-0.0174514628392215
3.488,-0.01744602967652039
3.492,-0.017446871095522773
3.496,-0.017446750892808147
3.5,-0.017447135541494952
3.504,-0.017446606649550597
3.508,-0.017448385649727064
3.512,-0.01744831352809829
3.516,-0.017447015338780326
3.52,-0.01744872221732802
3.524,-0.017452111933880483
3.528,-0.017456799839750906
3.532,-0.01745288123125409
3.536,-0.017451366677049798
3.54,-0.01744963575795918
3.544,-0.017447472109095905
3.548,-0.017449203028186526
3.552,-0.017449010703843124
3.556,-0.01744780867669686
3.56,-0.01744578927109114
3.564,-0.01744218318965235
3.568,-0.01744410643308637
3.572,-0.017446318163035494
3.576,-0.01744328905462691
3.58,-0.017442904405940107
3.584,-0.017442207230195274
3.588,-0.01744182258150847
3.592,-0.01744155813553629
3.596,-0.017444034311457593
3.6,-0.017446197960320868
3.604,-0.017450092528274758
3.608,-0.017454131339486204
3.612,-0.01745028485261816
3.616,-0.017446197960320868
3.62,-0.017446967257694474
3.624,-0.01744542866294726
3.628,-0.017442904405940107
3.632,-0.017438553067670632
3.636,-0.017437254878352668
3.64,-0.017439947419160298
3.644,-0.017441389851735815
3.648,-0.017447520190181757
3.652,-0.017451486879764423
3.656,-0.017450212730989387
3.66,-0.017447592311810534
3.664,-0.017444947852088753
3.668,-0.01744730382529543
3.672,-0.017448337568641215
3.676,-0.01745201577170878
3.68,-0.017453362042112595
3.684,-0.017447255744209578
3.688,-0.01744845777135584
3.692,-0.017446053717063315
3.696,-0.017442038946394796
3.7,-0.01744410643308637
3.704,-0.017443962189828816
3.708,-0.017446197960320868
3.712,-0.01744973192013088
3.716,-0.017445645027833585
3.72,-0.01744720766312373
3.724,-0.01744627008194964
3.728,-0.01744434683851562
3.732,-0.01744360158168494
3.736,-0.01744410643308637
3.74,-0.017447111500952028
3.744,-0.017445188257518007
3.748,-0.017440356108390027
3.7520000000000002,-0.017435187391661097
3.7560000000000002,-0.01743437001320164
3.7600000000000002,-0.017437831851382875
3.7640000000000002,-0.01743939448667302
3.7680000000000002,-0.017440187824589552
3.7720000000000002,-0.017438432864956006
3.7760000000000002,-0.017439827216445672
3.7800000000000002,-0.017442135108566497
3.7840000000000003,-0.01744379390602834
3.7880000000000003,-0.017441197527392413
3.7920000000000003,-0.01744074075707683
3.7960000000000003,-0.01744206298693772
3.8000000000000003,-0.017441029243591935
3.8040000000000003,-0.01744237551399575
3.8080000000000003,-0.01744054843273343
3.8120000000000003,-0.017441990865308947
3.8160000000000003,-0.017443673703313713
3.8200000000000003,-0.017444034311457593
3.8240000000000003,-0.017442351473452824
3.8280000000000003,-0.01744307268974058
3.8320000000000003,-0.017440572473276354
3.8360000000000003,-0.01743136494533598
3.84,-0.017435403756547424
3.844,-0.01743470658080259
3.848,-0.017430571607419447
3.852,-0.017433480513113404
3.856,-0.017435740324148376
3.86,-0.017437783770297026
3.864,-0.01743862518929941
3.868,-0.017437014472923416
3.872,-0.01744151005445044
3.876,-0.017442495716710377
3.88,-0.017443313095169836
3.884,-0.017441269649021186
3.888,-0.017439057919072062
3.892,-0.017438432864956006
3.896,-0.017438144378440903
3.9,-0.01743963489210227
3.904,-0.017444947852088753
3.908,-0.017444995933174605
3.912,-0.01743953872993057
3.916,-0.01743278333736857
3.92,-0.01743182171565156
3.924,-0.017432134242709587
3.928,-0.017428431999099093
3.932,-0.017431533229136455
3.936,-0.017432566972482244
3.94,-0.017434898905145994
3.944,-0.017439057919072062
3.948,-0.017438793473099887
3.952,-0.017430884134477475
3.956,-0.01742819159366984
3.96,-0.017426196228607044
3.964,-0.01742376813377159
3.968,-0.017422518025539478
3.972,-0.017422902674226283
3.976,-0.017425234606890033
3.98,-0.017430932215563324
3.984,-0.017431340904793053
3.988,-0.01742763866118256
3.992,-0.01742513844471833
3.996,-0.017428071390955212
4.0,-0.01742864836398542
4.0040000000000004,-0.017429970593846315
4.008,-0.01743470658080259
4.0120000000000005,-0.017434538297002113
4.016,-0.01743040332361897
4.0200000000000005,-0.0174310043371921
4.024,-0.017431437066964754
4.0280000000000005,-0.017433119904969523
4.032,-0.017429682107331212
4.0360000000000005,-0.017427951188240587
4.04,-0.017428167553126914
4.0440000000000005,-0.01742799926932644
4.048,-0.01742347964725649
4.0520000000000005,-0.017420474579390832
4.056,-0.017421508322736617
4.0600000000000005,-0.01742403257974377
4.064,-0.01742220549848145
4.0680000000000005,-0.01742352772834234
4.072,-0.017426244309692893
4.0760000000000005,-0.017426003904263642
4.08,-0.017424681674402753
4.0840000000000005,-0.01742571541774854
4.088,-0.017425763498834387
4.0920000000000005,-0.017423599849971116
4.096,-0.017418695579214362
4.1,-0.01741799840346953
4.104,-0.01741814264672708
4.108,-0.017417926281840752
4.112,-0.01741465676800292
4.116,-0.01741722910609592
4.12,-0.01741718102501007
4.124,-0.01741718102501007
4.128,-0.017420089930704027
4.132,-0.017422037214680972
4.136,-0.01742352772834234
4.14,-0.01742311903911261
4.144,-0.01742708572869528
4.148,-0.017430619688505296
4.152,-0.017430379283076045
4.156,-0.01742905705321515
4.16,-0.017421724687622944
4.164,-0.017417950322383677
4.168,-0.01741626748437891
4.172,-0.017417373349353473
4.176,-0.017416628092522788
4.18,-0.017418383052156334
4.184,-0.017416243443835983
4.188,-0.017414175957144413
4.192,-0.01741465676800292
4.196,-0.01741398363280101
4.2,-0.01741819072781293
4.204,-0.017421820849794645
4.208,-0.017422830552597506
4.212,-0.017415426065376525
4.216,-0.017418671538671437
4.22,-0.01742545097177636
4.224,-0.017431124539906726
4.228,-0.017430475445247746
4.232,-0.01742408066082962
4.236,-0.017417709916954426
4.24,-0.01741571455189163
4.244,-0.017417060822295445
4.248,-0.017416628092522788
4.252,-0.01741722910609592
4.256,-0.017416459808722314
4.26,-0.017414680808545843
4.264,-0.017416099200578433
4.268,-0.017417541633153948
4.272,-0.01741915234952994
4.276,-0.017420666903734235
4.28,-0.017422397822824853
4.284,-0.017420402457762055
4.288,-0.017419080227901167
4.292,-0.017417613754782724
4.296,-0.017421171755135665
4.3,-0.017418046484555378
4.304,-0.017410666037877325
4.308,-0.01740910340258718
4.312,-0.017412036348824062
4.316,-0.017413286457056178
4.32,-0.01741234887588209
4.324,-0.017415353943747748
4.328,-0.01741682041686619
4.332,-0.01741388747062931
4.336,-0.01741169978122311
4.34,-0.017413863430086385
4.344,-0.01741516161940435
4.348,-0.017409247645844735
4.352,-0.017408646632271603
4.356,-0.017412541200225493
4.36,-0.01741403171388686
4.364,-0.017415426065376525
4.368,-0.0174175897142398
4.372,-0.017418431133242183
4.376,-0.017412252713710392
4.38,-0.017412685443483046
4.384,-0.017412733524568895
4.388,-0.01741145937579386
4.392,-0.017410233308104667
4.396,-0.017410113105390042
4.4,-0.01741138725416508
4.404,-0.017411507456879707
4.408,-0.017417421430439322
4.412,-0.017416604051979864
4.416,-0.017414344240944887
4.42,-0.017417156984467143
4.424,-0.017416531930351087
4.428,-0.017416027078949656
4.432,-0.017410641997334397
4.436,-0.017408382186299424
4.44,-0.017406651267208806
4.444,-0.01740657914558003
4.448,-0.0174038866047724
4.452,-0.017399078496187347
4.456,-0.017401266185593546
4.46,-0.0173996073881317
4.464,-0.01739653019863727
4.468,-0.01739891021238687
4.472,-0.017403405793913893
4.476,-0.01740809369978432
4.48,-0.01740549732114839
4.484,-0.017402035482967156
4.488,-0.017403814483143622
4.492,-0.017404776104860634
4.496,-0.017402492253282734
4.5,-0.017401073861250144
4.5040000000000004,-0.017402997104684164
4.508,-0.01740631469960785
4.5120000000000005,-0.017406531064494177
4.516,-0.017408310064670647
4.5200000000000005,-0.01741129109199338
4.524,-0.017410738159506098
4.5280000000000005,-0.01740698783480976
4.532,-0.01740412701020165
4.5360000000000005,-0.01740383852368655
4.54,-0.01740549732114839
4.5440000000000005,-0.017405521361691316
4.548,-0.01740215568568178
4.5520000000000005,-0.017400400726048235
4.556,-0.017403189429027566
4.5600000000000005,-0.01740374236151485
4.564,-0.017402251847853482
4.5680000000000005,-0.017401891239709602
4.572,-0.01739794859066986
4.5760000000000005,-0.017393501090228684
4.58,-0.017394703117374948
4.5840000000000005,-0.017394582914660322
4.588,-0.017394823320089577
4.5920000000000005,-0.01739876596912932
4.596,-0.01740119406396477
4.6000000000000005,-0.01740465590214601
4.604,-0.01739859768532884
4.6080000000000005,-0.017396650401351896
4.612,-0.01740246821273981
4.616,-0.0174017950775379
4.62,-0.017404199131830427
4.624,-0.0174061704563503
4.628,-0.017409704416160313
4.632,-0.017404583780517232
4.636,-0.017402011442424228
4.64,-0.017403814483143622
4.644,-0.017396650401351896
4.648,-0.017394871401175425
4.652,-0.01739785242849816
4.656,-0.017398790009672243
4.66,-0.01739124127919371
4.664,-0.017386913981467165
4.668,-0.01738886126544411
4.672,-0.017389558441188942
4.676,-0.017388885305987034
4.68,-0.01738890934652996
4.684,-0.017387611157211998
4.688,-0.017391433603537114
4.692,-0.017392779873940927
4.696,-0.017391577846794664
4.7,-0.017391433603537114
4.704,-0.017394126144344744
4.708,-0.017398477482614215
4.712,-0.017401771036994976
4.716,-0.017398213036642036
4.72,-0.017397299496010876
4.724,-0.017400304563876534
4.728,-0.017397876469041083
4.732,-0.017388428535671456
4.736,-0.017386481251694508
4.74,-0.017381889507995782
4.744,-0.017381024048450475
4.748,-0.0173833319405713
4.752,-0.0173833319405713
4.756,-0.017383355981114224
4.76,-0.017380158588905164
4.764,-0.01738073556193537
4.768,-0.017384558008260487
4.772,-0.017383259818942523
4.776,-0.017384413765002937
4.78,-0.0173880919680705
4.784,-0.017389173792502138
4.788,-0.01738592831920723
4.792,-0.01738982288716112
4.796,-0.017390808549421054
4.8,-0.01739205865765317
4.804,-0.017395424333662708
4.808,-0.017394775239003724
4.812,-0.017396938887867
4.816,-0.017398237077184964
4.82,-0.017389702684446492
4.824,-0.017383812751429806
4.828,-0.01738881318435826
4.832,-0.017389414197931392
4.836,-0.01738922187358799
4.84,-0.017388933387072886
4.844,-0.017386192765179404
4.848,-0.017391024914307385
4.852,-0.017395520495834406
4.856,-0.01739549645529148
4.86,-0.017392900076655553
4.864,-0.0173926596712263
4.868,-0.01739323664425651
4.872,-0.01739119319810786
4.876,-0.01739169804950929
4.88,-0.017392130779281947
4.884,-0.017393669374029162
4.888,-0.017396794644609446
4.892,-0.017392034617110246
4.896,-0.017383043454056196
4.9,-0.017384533967717563
4.904,-0.01738484649477559
4.908,-0.017388668941100707
4.912,-0.01738713034635349
4.916,-0.017384822454232667
4.92,-0.017384533967717563
4.924,-0.017386144684093555
4.928,-0.01738982288716112
4.932,-0.017389558441188942
4.936,-0.01738862086001486
4.94,-0.017384630129889264
4.944,-0.017383812751429806
4.948,-0.017382706886455244
4.952,-0.017381673143109455
4.956,-0.017380567278134893
4.96,-0.017383019413513272
4.964,-0.017383860832515655
4.968,-0.017386048521921854
4.972,-0.01738535134617702
4.976,-0.017381168291708025
4.98,-0.017379245048274004
4.984,-0.01738039899433442
4.988,-0.017379797980761287
4.992,-0.017383187697313746
4.996,-0.017383644467629328
5.0,-0.017381072129536324
5.0040000000000004,-0.01738398103523028
5.008,-0.01738434164337416
5.0120000000000005,-0.01738357234600055
5.016,-0.017387298630153966
5.0200000000000005,-0.017384870535318515
5.024,-0.017386986103095938
5.0280000000000005,-0.01739241926579705
5.032,-0.01738845257621438
5.0360000000000005,-0.017383187697313746
5.04,-0.017382490521568913
5.0440000000000005,-0.017384702251518037
5.048,-0.017382129913425037
5.0520000000000005,-0.017381841426909933
5.056,-0.01737643230475175
5.0600000000000005,-0.017378259386014068
5.064,-0.017376047656064944
5.0680000000000005,-0.017374100372088
5.072,-0.017374388858603103
5.0760000000000005,-0.017375566845206438
5.08,-0.017377153521039506
5.0840000000000005,-0.017382851129712794
5.088,-0.017384437805545862
5.0920000000000005,-0.017379894142932985
5.096,-0.017378163223842367
5.1000000000000005,-0.017377057358867805
5.104,-0.017379437372617407
5.1080000000000005,-0.017381673143109455
5.112,-0.01737871615632965
5.1160000000000005,-0.017374004209916298
5.12,-0.01737424461534555
5.124,-0.017371455912366218
5.128,-0.01736881145264444
5.132,-0.017367657506584026
5.136,-0.017365734263150006
5.14,-0.017367513263326476
5.144,-0.01737388400720167
5.148,-0.017374797547832832
5.152,-0.017376816953438554
5.156,-0.017379942224018837
5.16,-0.017379749899675435
5.164,-0.017383283859485447
5.168,-0.017385375386719946
5.172,-0.017381216372793877
5.176,-0.017377994940041892
5.18,-0.017375446642491812
5.184,-0.017371311669108668
5.188,-0.01737424461534555
5.192,-0.01737717756158243
5.196,-0.01737739392646876
5.2,-0.01737602361552202
5.204,-0.017374460980231876
5.208,-0.017373811885572896
5.212,-0.017374004209916298
5.216,-0.01737571108846399
5.22,-0.0173719126826818
5.224,-0.017368835493187365
5.228,-0.017374028250459222
5.232,-0.017375446642491812
5.236,-0.017372730061141258
5.24,-0.01737566300737814
5.244,-0.017376312102037123
5.248,-0.017378331507642845
5.252,-0.017378427669814546
5.256,-0.01738013454836224
5.26,-0.01737575916954984
5.264,-0.017374557142403577
5.268,-0.017375951493893243
5.272,-0.01737359552068657
5.276,-0.01736720073626845
5.28,-0.01737109530422234
5.284,-0.0173767688723527
5.288,-0.017379413332074482
5.292,-0.017379341210445706
5.296,-0.01737804302112774
5.3,-0.017379485453703256
5.304,-0.017379846061847136
5.308,-0.017378379588728694
5.312,-0.017383355981114224
5.316,-0.017385567711063348
5.32,-0.017383019413513272
5.324,-0.017379605656417885
5.328,-0.017376889075067327
5.332,-0.017376456345294673
5.336,-0.01737090297987894
5.34,-0.017367224776811373
5.344,-0.017369340344588795
5.348,-0.0173697249932756
5.352,-0.01736830660124301
5.356,-0.017366455479437763
5.36,-0.017367104574096747
5.364,-0.017367513263326476
5.368,-0.017370782777164313
5.372,-0.017371479952909143
5.376,-0.01737323491254269
5.38,-0.017372946426027585
5.384,-0.01737520623706256
5.388,-0.017376913115610255
5.392,-0.01738145677822313
5.396,-0.01738229819722551
5.4,-0.017379293129359853
5.404,-0.017371984804310577
5.408,-0.017372754101684183
5.412,-0.01737424461534555
5.416,-0.01737378784502997
5.42,-0.017362488789855097
5.424,-0.017357175829868614
5.428,-0.017359002911130933
5.432,-0.0173653496144632
5.436,-0.01736433991166034
5.44,-0.01736104635727958
5.444,-0.017358498059729503
5.448,-0.017359099073302634
5.452,-0.017360108776105495
5.456,-0.017359700086875766
5.46,-0.017359555843618212
5.464,-0.017357993208328072
5.468,-0.017360277059905973
5.472,-0.017362945560170675
5.476,-0.017368186398528385
5.48,-0.01736958075001805
5.484,-0.017365229411748576
5.488,-0.01736217626279707
5.492,-0.017365301533377352
5.496,-0.01736474860089007
5.5,-0.0173627772763702
5.5040000000000004,-0.017364003344059388
5.508,-0.01736465243871837
5.5120000000000005,-0.017362536870940946
5.516,-0.017359243316560184
5.5200000000000005,-0.017359099073302634
5.524,-0.01735835381647195
5.5280000000000005,-0.01736054150587815
5.532,-0.017361022316736655
5.5360000000000005,-0.017359243316560184
5.54,-0.017357464316383717
5.5440000000000005,-0.017359195235474335
5.548,-0.017358882708416307
5.5520000000000005,-0.01736090211402203
5.556,-0.017362488789855097
5.5600000000000005,-0.017364003344059388
5.564,-0.017362705154741424
5.5680000000000005,-0.017361983938453666
5.572,-0.01735585360000772
5.5760000000000005,-0.017354988140462414
5.58,-0.017356719059553032
5.5840000000000005,-0.017355997843265275
5.588,-0.017358834627330455
5.5920000000000005,-0.017360565546421076
5.596,-0.017359363519274813
5.6000000000000005,-0.017360589586964
5.604,-0.01736729689844015
5.6080000000000005,-0.017365229411748576
5.612,-0.017364171627859866
5.6160000000000005,-0.017367777709298655
5.62,-0.017368907614816142
5.6240000000000006,-0.017364580317089595
5.628,-0.017363522533200882
5.632,-0.01736109443836543
5.636,-0.017357584519098343
5.64,-0.017357079667696913
5.644,-0.01735455541068976
5.648,-0.01735251196454111
5.652,-0.017353834194402
5.656,-0.017357728762355893
5.66,-0.017358377857014877
5.664,-0.017356406532495004
5.668,-0.01735597380272235
5.672,-0.01735679118118181
5.676,-0.017359339478731885
5.68,-0.01736008473556257
5.684,-0.017359868370676244
5.688,-0.017364820722518846
5.692,-0.01736195989791074
5.696,-0.01735729603258324
5.7,-0.017360445343706447
5.704,-0.01735854614081535
5.708,-0.017355685316207247
5.712,-0.01735287257268499
5.716,-0.017357007546068136
5.72,-0.017364556276546667
5.724,-0.017363258087228703
5.728,-0.017362729195284348
5.732,-0.017359099073302634
5.736,-0.017355084302634115
5.74,-0.017355156424262892
5.744,-0.01735744027584079
5.748,-0.017359940492305017
5.752,-0.017361118478908356
5.756,-0.017359603924704065
5.76,-0.017358377857014877
5.764,-0.01735652673520963
5.768,-0.017353112978114243
5.772,-0.017358618262444128
5.776,-0.017364051425145237
5.78,-0.017360926154564953
5.784,-0.017354122680917104
5.788,-0.01735251196454111
5.792,-0.01735537278914922
5.796,-0.017353882275487852
5.8,-0.01734816062627164
5.804,-0.017347583653241433
5.808,-0.017344338179946524
5.812,-0.017349506896675453
5.816,-0.01734840103170089
5.82,-0.01735359378897275
5.824,-0.017356863302810586
5.828,-0.017358522100272427
5.832,-0.0173560218838082
5.836,-0.01735804128941392
5.84,-0.01735917119493141
5.844,-0.01735917119493141
5.848,-0.017356574816295482
5.852,-0.017351478221195326
5.856,-0.017349867504819334
5.86,-0.01735032427513491
5.864,-0.01734871355875892
5.868,-0.017346910518039525
5.872,-0.017350300234591987
5.876,-0.01734830486952919
5.88,-0.01733933774701807
5.884,-0.017343160193343185
5.888,-0.017346670112610273
5.892,-0.017345684450350337
5.896,-0.017343064031171484
5.9,-0.017345299801663532
5.904,-0.017348785680387696
5.908,-0.01735140609956655
5.912,-0.017352487923998187
5.916,-0.017353353383543497
5.92,-0.017351790748253354
5.924,-0.017350612761650015
5.928,-0.017345780612522038
5.932,-0.017345900815236664
5.936,-0.017348521234415517
5.94,-0.017353545707886896
5.944,-0.01735469965394731
5.948,-0.017344578585375775
5.952,-0.017339602192990244
5.956,-0.017337606827927447
5.96,-0.01733957815244732
5.964,-0.017340732098507734
5.968,-0.01734217453108325
5.972,-0.017343256355514886
5.976,-0.017341188868823312
5.98,-0.017339025219960037
5.984,-0.01734287170682808
5.988,-0.017344169896146046
5.992,-0.01734267938248468
5.996,-0.01734368908528754
6.0,-0.01734703072075415
6.0040000000000004,-0.017351574383367027
6.008,-0.017353209140285944
6.0120000000000005,-0.017348737599301844
6.016,-0.0173446987880904
6.0200000000000005,-0.017342751504113456
6.024,-0.017336308638609483
6.0280000000000005,-0.017334120949203287
6.032,-0.017336308638609483
6.0360000000000005,-0.017336356719695335
6.04,-0.017336717327839212
6.0440000000000005,-0.017334529638433016
6.048,-0.01733159669219613
6.0520000000000005,-0.01733469792223349
6.056,-0.017339746436247798
6.0600000000000005,-0.017343160193343185
6.064,-0.017342342814883727
6.0680000000000005,-0.01734034744982093
6.072,-0.017342847666285157
6.0760000000000005,-0.017346958599125377
6.08,-0.017348521234415517
6.0840000000000005,-0.017348497193872593
6.088,-0.0173425110986842
6.0920000000000005,-0.017337582787384523
6.096,-0.017337847233356702
6.1000000000000005,-0.01733472196277642
6.104,-0.017338736733444937
6.1080000000000005,-0.01734044361199263
6.112,-0.017337366422498196
6.1160000000000005,-0.017334409435718387
6.12,-0.01733724621978357
6.1240000000000006,-0.017332750638256546
6.128,-0.017330226381249394
6.132000000000001,-0.017332053462511713
6.136,-0.017334000746488658
6.140000000000001,-0.01733469792223349
6.144,-0.017337582787384523
6.148,-0.017337318341412344
6.152,-0.01733789531444255
6.156,-0.017339241584846368
6.16,-0.01734520363949183
6.164,-0.017347463450526807
6.168,-0.017348328910072115
6.172,-0.017347271126183405
6.176,-0.0173469826396683
6.18,-0.017347824058670684
6.184,-0.01734628546392347
6.188,-0.017338328044215208
6.192,-0.01734186200402522
6.196,-0.017340371490363854
6.2,-0.017339602192990244
6.204,-0.017341573517510117
6.208,-0.017338352084758132
6.212,-0.01733419307083206
6.216,-0.017334433476261315
6.22,-0.017332918922057024
6.224,-0.017331885178711235
6.228,-0.01733202942196879
6.232,-0.017334481557347164
6.236,-0.017334673881690566
6.24,-0.017336260557523634
6.244,-0.017341982206739846
6.248,-0.017339457949732694
6.252,-0.017333760341059407
6.256,-0.017337534706298674
6.26,-0.017337174098154794
6.264,-0.017340275328192153
6.268,-0.017329721529847963
6.272,-0.017320273596478333
6.276,-0.017320273596478333
6.28,-0.017322894015657186
6.284,-0.01732460089420488
6.288,-0.017325177867235086
6.292,-0.01732541827266434
6.296,-0.017329000313560203
6.3,-0.017332822759885323
6.304,-0.0173353710574354
6.308,-0.017339265625389292
6.312,-0.017342631301398827
6.316,-0.01734414585560312
6.32,-0.017342126449997396
6.324,-0.017341573517510117
6.328,-0.017338376125301057
6.332,-0.017331524570567358
6.336,-0.017329625367676262
6.34,-0.01733602015209438
6.344,-0.017334770043862267
6.348,-0.017331236084052255
6.352,-0.017330154259620617
6.356,-0.01732327866434399
6.36,-0.01732029763702126
6.364,-0.01732323058325814
6.368,-0.017324985542891684
6.372,-0.01732664434035353
6.376,-0.01732907243518898
6.38,-0.01733075527319375
6.384,-0.017332197705769263
6.388,-0.017339097341588814
6.392,-0.017340780179593583
6.396,-0.017338039557700104
6.4,-0.01733354397617308
6.404,-0.01733522681417785
6.408,-0.01733770299009915
6.412,-0.017334361354632538
6.416,-0.01732907243518898
6.42,-0.017329048394646055
6.424,-0.017328543543244625
6.428,-0.017330466786678645
6.432,-0.017332101543597562
6.436,-0.017326452016010126
6.44,-0.01732683666469693
6.444,-0.017326019286237473
6.448,-0.017326548178181828
6.452,-0.017323110380543516
6.456,-0.017321475623624596
6.46,-0.0173196725829052
6.464,-0.017321980475026026
6.468,-0.017325778880808218
6.472,-0.01732520190777801
6.476,-0.017321235218195345
6.48,-0.017316907920468798
6.484,-0.01731678771775417
6.488,-0.01731810994761506
6.492,-0.017319047528789145
6.496,-0.017318470555758938
6.5,-0.017322942096743038
6.5040000000000004,-0.01732378351574542
6.508,-0.017323927759002974
6.5120000000000005,-0.017329000313560203
6.516,-0.01732714919175496
6.5200000000000005,-0.017325538475378967
6.524,-0.017323711394116648
6.5280000000000005,-0.01732363927248787
6.532,-0.017328687786502175
6.5360000000000005,-0.017332438111198518
6.54,-0.017322653610227935
6.5440000000000005,-0.017317869542185806
6.548,-0.017319504299104727
6.5520000000000005,-0.01731815802870091
6.556,-0.01732048996136466
6.5600000000000005,-0.017320465920821735
6.564,-0.017318783082816966
6.5680000000000005,-0.017320369758650034
6.572,-0.017323422907601544
6.5760000000000005,-0.01732592312406577
6.58,-0.017320634204622213
6.5840000000000005,-0.017320393799192958
6.588,-0.017317460852956077
6.5920000000000005,-0.017315273163549878
6.596,-0.017319504299104727
6.6000000000000005,-0.017322942096743038
6.604,-0.017323062299457664
6.6080000000000005,-0.017320898650594392
6.612,-0.017322821894028412
6.6160000000000005,-0.017320514001907587
6.62,-0.017313686487716813
6.6240000000000006,-0.017316619433953694
6.628,-0.017317989744900432
6.632000000000001,-0.017317532974584854
6.636,-0.017315609731150833
6.640000000000001,-0.017314527906719196
6.644,-0.017313974974231913
6.648000000000001,-0.01731496063649185
6.652,-0.017313422041744634
6.656000000000001,-0.017314335582375794
6.66,-0.017325610597007744
6.664,-0.01733272659771362
6.668,-0.017337270260326495
6.672,-0.017333616097801853
6.676,-0.017331885178711235
6.68,-0.017323326745429843
6.684,-0.017317869542185806
6.688,-0.017315898217665937
6.692,-0.017312604663285176
6.696,-0.017313422041744634
6.7,-0.017314071136403614
6.704,-0.017314215379661168
6.708,-0.017318446515216013
6.712,-0.0173196725829052
6.716,-0.017313614366088036
6.72,-0.017309407271076115
6.724,-0.017311402636138912
6.728,-0.01731856671793064
6.732,-0.017323470988687393
6.736,-0.017314575987805045
6.74,-0.017306378162667533
6.744,-0.017310080406278024
6.748,-0.01731363840663096
6.752,-0.017315898217665937
6.756,-0.017311594960482315
6.76,-0.01730856585207373
6.764,-0.017308589892616657
6.768,-0.01731277294708565
6.772,-0.01731609054200934
6.776,-0.017318951366617444
6.78,-0.017318951366617444
6.784,-0.017318494596301866
6.788,-0.01732085056950854
6.792,-0.017323062299457664
6.796,-0.017319912988334456
6.8,-0.01732061016407929
6.804,-0.017318879244988667
6.808,-0.017318133988157985
6.812,-0.017321740069596775
6.816,-0.01731806186652921
6.82,-0.017321499664167524
6.824,-0.0173239517995459
6.828,-0.017315946298751786
6.832,-0.01731121031179551
6.836,-0.017308445649359103
6.84,-0.01730952747379074
6.844,-0.017308974541303458
6.848,-0.01730892646021761
6.852,-0.01731145071722476
6.856,-0.01731277294708565
6.86,-0.017311090109080884
6.864,-0.017309815960305844
6.868,-0.017313854771517288
6.872,-0.017317316609698527
6.876,-0.017316956001554647
6.88,-0.017318494596301866
6.884,-0.01731806186652921
6.888,-0.017317725298928256
6.892,-0.017318807123359894
6.896,-0.017320465920821735
6.9,-0.017317941663814583
6.904,-0.017314383663461642
6.908,-0.01731236425785592
6.912,-0.017312748906542726
6.916,-0.01730527229769297
6.92,-0.017304382797604736
6.924,-0.01731176324428279
6.928,-0.017312580622742248
6.932,-0.017305608865293923
6.936,-0.017302147027112684
6.94,-0.01730505593280664
6.944,-0.017308325446644478
6.948,-0.0173126287038281
6.952,-0.01731399901477484
6.956,-0.017311498798310614
6.96,-0.01731171516319694
6.964,-0.017312941230886128
6.968,-0.017310729500937004
6.972,-0.01731070546039408
6.976,-0.01730993616302047
6.98,-0.01730887837913176
6.984,-0.01730919090618979
6.988,-0.017305488662579298
6.992,-0.017298348621330492
6.996,-0.017298348621330492
7.0,-0.017295511837265312
7.0040000000000004,-0.017292747174828905
7.008,-0.017294189607404423
7.0120000000000005,-0.01729709851309838
7.016,-0.017298997715989476
7.0200000000000005,-0.017301137324309823
7.024,-0.01730135368919615
7.0280000000000005,-0.017305584824751
7.032,-0.01730572906800855
7.0360000000000005,-0.017307772514157195
7.04,-0.017309238987275637
7.0440000000000005,-0.017308157162844
7.048,-0.01730765231144257
7.0520000000000005,-0.017310272730621423
7.056,-0.017312460420027622
7.0600000000000005,-0.0173104410144219
7.064,-0.017302291270370238
7.0680000000000005,-0.017302796121771668
7.072,-0.017299670851191384
7.0760000000000005,-0.01729390112088932
7.08,-0.01729339626948789
7.0840000000000005,-0.01728704956615562
7.088,-0.017288708363617462
7.0920000000000005,-0.017290078674564203
7.096,-0.01729572820215164
7.1000000000000005,-0.017298661148388524
7.104,-0.017299959337706484
7.1080000000000005,-0.01730147389191078
7.112,-0.01730298844611507
7.1160000000000005,-0.017308734135874207
7.12,-0.017312941230886128
7.1240000000000006,-0.017309960203563395
7.128,-0.017303589459688202
7.132000000000001,-0.0172990217565324
7.136,-0.017298709229474372
7.140000000000001,-0.017297939932100763
7.144,-0.017298348621330492
7.148000000000001,-0.01729709851309838
7.152,-0.017290896053023662
7.156000000000001,-0.0172896940258774
7.16,-0.017288900687960865
7.164000000000001,-0.017292074039627
7.168,-0.0172942617290332
7.172,-0.01729298758025816
7.176,-0.017297939932100763
7.18,-0.017296810026583277
7.184,-0.017293372228944965
7.188,-0.017292747174828905
7.192,-0.017296978310383754
7.196,-0.01730253167579949
7.2,-0.017300103580964038
7.204,-0.01729938236467628
7.208,-0.017295367594007762
7.212,-0.01729015079619298
7.216,-0.01728897280958964
7.22,-0.017288756444703315
7.224,-0.01729517526966436
7.228,-0.0173011132837669
7.232,-0.017297939932100763
7.236,-0.017294478093919527
7.24,-0.017290415242165156
7.244,-0.017287578458099976
7.248,-0.017290367161079307
7.252,-0.01728993443130665
7.256,-0.01729322798568741
7.26,-0.01729096817465244
7.264,-0.017293179904601563
7.268,-0.017293564553288367
7.272,-0.01729202595854115
7.276,-0.01728904493121842
7.28,-0.017291184539538765
7.284,-0.017293372228944965
7.288,-0.017291689390940196
7.292,-0.017284453187519692
7.296,-0.017287842904072155
7.3,-0.01729156918822557
7.304,-0.017291881715283598
7.308,-0.01729440597229075
7.312,-0.017291136458452913
7.316,-0.0172876024986429
7.32,-0.0172876986608146
7.324,-0.01728904493121842
7.328,-0.01729171343148312
7.332,-0.017298901553817775
7.336,-0.017301786418968807
7.34,-0.017294526175005376
7.344,-0.017288491998731136
7.348,-0.017283876214489485
7.352,-0.017279164268076134
7.356,-0.017281231754767708
7.36,-0.017280774984452126
7.364,-0.01727954891676294
7.368,-0.01728024609250777
7.372,-0.0172829386333154
7.376,-0.017287410174299498
7.38,-0.017284573390234318
7.384,-0.017281904889969613
7.388,-0.017283924295575334
7.392,-0.01728938149881937
7.396,-0.017282962673858326
7.4,-0.017283683890146083
7.404,-0.017290222917821754
7.408,-0.017280919227709676
7.412,-0.017274981213607137
7.416,-0.017273562821574547
7.42,-0.017268249861588064
7.424,-0.017269620172534805
7.428,-0.017275462024465643
7.432,-0.017275558186637344
7.436,-0.01727440424057693
7.44,-0.017273298375602368
7.444,-0.017272697362029237
7.448,-0.017274380200034006
7.452,-0.017272216551170734
7.456,-0.017277241024642113
7.46,-0.017281135592596007
7.464,-0.01728344348471683
7.468,-0.017284573390234318
7.472,-0.017283972376661186
7.476,-0.017283828133403633
7.48,-0.01728308287657295
7.484,-0.017276712132697755
7.488,-0.017273538781031623
7.492,-0.017276760213783608
7.496,-0.017279765281649265
7.5,-0.01727841901124545
7.5040000000000004,-0.017277265065185038
7.508,-0.017278563254503002
7.5120000000000005,-0.01727938063296246
7.516,-0.01727750547061429
7.5200000000000005,-0.017277481430071365
7.524,-0.017277168903013337
7.5280000000000005,-0.017276399605639727
7.532,-0.01727308201071604
7.5360000000000005,-0.01727873153830348
7.54,-0.017277241024642113
7.5440000000000005,-0.017274428281119858
7.548,-0.017273779186460874
7.5520000000000005,-0.01727298584854434
7.556,-0.017271952105198555
7.5600000000000005,-0.017269908659049905
7.564,-0.017268586429189017
7.5680000000000005,-0.01726399468549029
7.572,-0.01726618237489649
7.5760000000000005,-0.01727202422682733
7.58,-0.01727486101089251
7.5840000000000005,-0.017268802794075343
7.588,-0.01726594196946724
7.5920000000000005,-0.017266254496525267
7.596,-0.01726471590177805
7.6000000000000005,-0.017263417712460087
7.604,-0.017269524010363104
7.6080000000000005,-0.01727344261885992
7.612,-0.017272817564743866
7.6160000000000005,-0.0172691393616763
7.62,-0.01726974037524943
7.6240000000000006,-0.017268081577787586
7.628,-0.017266567023583295
7.632000000000001,-0.017269187442762148
7.636,-0.017269620172534805
7.640000000000001,-0.017269067240047523
7.644,-0.01726699975335595
7.648000000000001,-0.017267288239871052
7.652,-0.0172668555100984
7.656000000000001,-0.017268610469731945
7.66,-0.017264956307207303
7.664000000000001,-0.017262359928571374
7.668,-0.017261951239341645
7.672000000000001,-0.017262912861058657
7.676,-0.017265845807295538
7.68,-0.01726627853706819
7.684,-0.017265725604580912
7.688,-0.017262792658344028
7.692,-0.017267937334530036
7.696,-0.01726887491570412
7.7,-0.017268562388646092
7.704,-0.017269235523848
7.708,-0.01726680742901255
7.712,-0.017267168037156427
7.716,-0.01726577368566676
7.72,-0.01726721611824228
7.724,-0.017265148631550705
7.728,-0.01725964334722082
7.732,-0.017262624374543553
7.736,-0.017262528212371852
7.74,-0.017265244793722406
7.744,-0.017267143996613502
7.748,-0.017259667387763744
7.752,-0.01725988375265007
7.756,-0.017259763549935445
7.76,-0.017260580928394904
7.764,-0.017261686793369466
7.768,-0.01726233588802845
7.772,-0.017264956307207303
7.776,-0.017266014091096016
7.78,-0.0172668555100984
7.784,-0.0172669516722701
7.788,-0.01726618237489649
7.792,-0.017263634077346414
7.796,-0.01726786521290126
7.8,-0.01727101452402447
7.804,-0.0172713270510825
7.808,-0.01727156745651175
7.812,-0.01727070199696644
7.816,-0.01726344175300301
7.82,-0.017257672022700947
7.824,-0.017259667387763744
7.828,-0.017262047401513346
7.832,-0.017259451022877417
7.836,-0.01725933082016279
7.84,-0.017263802361146892
7.844,-0.017262119523142123
7.848,-0.01725598918469618
7.852,-0.01725320048171685
7.856,-0.017252911995201747
7.86,-0.0172534408871461
7.864,-0.017256205549582508
7.868,-0.017261734874455318
7.872,-0.017259571225592043
7.876,-0.01725512372515087
7.88,-0.01726005203645055
7.884,-0.017265052469379004
7.888,-0.01726558136132336
7.892,-0.017266879550641323
7.896,-0.017271855943026854
7.9,-0.017267288239871052
7.904,-0.017254450589948962
7.908,-0.01725872980658966
7.912,-0.017263273469202534
7.916,-0.01726416296929077
7.92,-0.017266398739782817
7.924,-0.017264090847661992
7.928,-0.01725558049546645
7.932,-0.017249666521906834
7.936,-0.01725005117059364
7.94,-0.01725228694108569
7.944,-0.01725259946814372
7.948,-0.017257263333471218
7.952,-0.017258152833559453
7.956,-0.017258248995731154
7.96,-0.017259426982334493
7.964,-0.01725485927917869
7.968,-0.01725690272532734
7.972,-0.017266879550641323
7.976,-0.017266783388469622
7.98,-0.017261710833912394
7.984,-0.017260484766223202
7.988,-0.01725142148154038
7.992,-0.01724598831883927
7.996,-0.01725308027900222
8.0,-0.017260869414910007
8.004,-0.017265653482952135
8.008000000000001,-0.017264283172005394
8.012,-0.017261109820339262
8.016,-0.017262480131286
8.02,-0.017263922563861517
8.024000000000001,-0.017259763549935445
8.028,-0.017254907360264544
8.032,-0.017252815833030045
8.036,-0.017253945738547532
8.040000000000001,-0.017257768184872648
8.044,-0.017255195846779647
8.048,-0.017242213953600004
8.052,-0.017231612074169962
8.056000000000001,-0.017232669858058675
8.06,-0.01723976181822163
8.064,-0.017243776588890147
8.068,-0.017249378035391734
8.072000000000001,-0.017255195846779647
8.076,-0.01725644595501176
8.08,-0.017253416846603177
8.084,-0.017254450589948962
8.088000000000001,-0.017261542550111916
8.092,-0.017260773252738306
8.096,-0.01726055688785198
8.1,-0.01725832111735993
8.104000000000001,-0.01725887404984721
8.108,-0.017269067240047523
8.112,-0.01727649576781143
8.116,-0.01726810561833051
8.120000000000001,-0.017259042333647688
8.124,-0.017257888387587274
8.128,-0.01725050794090922
8.132,-0.017246565291869475
8.136000000000001,-0.01724781540010159
8.14,-0.017241444656226394
8.144,-0.017244137197034024
8.148,-0.017248536616389348
8.152000000000001,-0.017246252764811447
8.156,-0.017260436685137354
8.16,-0.01727248099714291
8.164,-0.0172693316860197
8.168000000000001,-0.017269235523848
8.172,-0.017278587295045927
8.176,-0.01728106347096723
8.18,-0.017274476362205707
8.184000000000001,-0.01726781713181541
8.188,-0.0172647639828639
8.192,-0.01726344175300301
8.196,-0.017259162536362314
8.2,-0.017257383536185843
8.204,-0.017255748779266927
8.208,-0.01725644595501176
8.212,-0.017257143130756592
8.216,-0.017258080711930676
8.22,-0.017254234225062635
8.224,-0.017247791359558666
8.228,-0.017250027130050714
8.232,-0.017258032630844827
8.236,-0.017263778320603964
8.24,-0.017263225388116685
8.244,-0.017250219454394117
8.248,-0.017246781656755805
8.252,-0.017254787157549918
8.256,-0.01726132618522559
8.26,-0.0172646678206922
8.264,-0.017259619306677895
8.268,-0.017260773252738306
8.272,-0.017268081577787586
8.276,-0.017270221186107937
8.28,-0.017263297509745458
8.284,-0.017261999320427497
8.288,-0.01726937976710555
8.292,-0.017271375132168348
8.296,-0.01727563030826612
8.3,-0.017277144862470412
8.304,-0.017272505037685834
8.308,-0.017268153699416363
8.312,-0.017262359928571374
8.316,-0.017259042333647688
8.32,-0.01726502842883608
8.324,-0.017256878684784413
8.328,-0.017253825535832906
8.332,-0.0172623839691143
8.336,-0.01726310518540206
8.34,-0.01725899425256184
8.344,-0.017252863914115894
8.348,-0.01725151764371208
8.352,-0.017261806996084095
8.356,-0.01727594283532415
8.36,-0.017279500835677086
8.364,-0.0172713270510825
8.368,-0.017266518942497446
8.372,-0.017272408875514133
8.376,-0.017280823065537975
8.38,-0.017283323282002203
8.384,-0.0172739955513472
8.388,-0.017264475496348797
8.392,-0.01726558136132336
8.396,-0.017265797726209686
8.4,-0.017260460725680278
8.404,-0.017265389036979956
8.408,-0.01725166188696963
8.412,-0.01724507477820811
8.416,-0.017255003522436245
8.42,-0.017266927631727175
8.424,-0.017266615104669147
8.428,-0.01726207144205627
8.432,-0.01726389852331859
8.436,-0.017265821766752613
8.44,-0.017265220753179482
8.444,-0.017269572091448953
8.448,-0.01727861133558885
8.452,-0.01728334732254513
8.456,-0.017286256228239087
8.46,-0.017292915458629383
8.464,-0.017291761512568973
8.468,-0.01727695253812701
8.472,-0.017276399605639727
8.476,-0.017289501701533996
8.48,-0.017294430012833675
8.484,-0.017287842904072155
8.488,-0.017288996850132566
8.492,-0.017290872012480737
8.496,-0.017291593228768495
8.5,-0.01729156918822557
8.504,-0.0172990217565324
8.508000000000001,-0.017299959337706484
8.512,-0.01729065564759441
8.516,-0.01729238656668503
8.52,-0.017306041595066577
8.524000000000001,-0.0173126287038281
8.528,-0.017304286635433035
8.532,-0.017295511837265312
8.536,-0.017296906188754978
8.540000000000001,-0.017306161797781203
8.544,-0.017309503433247816
8.548,-0.017298997715989476
8.552,-0.017289958471849578
8.556000000000001,-0.017287386133756574
8.56,-0.017289573823162773
8.564,-0.017290367161079307
8.568,-0.01729810821590124
8.572000000000001,-0.01729404536414687
8.576,-0.01728668895801174
8.58,-0.017283876214489485
8.584,-0.017283058836030027
8.588000000000001,-0.01728897280958964
8.592,-0.017297050432012528
8.596,-0.01729202595854115
8.6,-0.01727563030826612
8.604000000000001,-0.017276664051611906
8.608,-0.01729029503945053
8.612,-0.017295343553464834
8.616,-0.017287025525612693
8.620000000000001,-0.017279356592419536
8.624,-0.017280678822280425
8.628,-0.017289213215018893
8.632,-0.017296545580611097
8.636000000000001,-0.01730207490548391
8.64,-0.017293588593831292
8.644,-0.01728486187674942
8.648,-0.017284717633491868
8.652000000000001,-0.01728911705284719
8.656,-0.01729628113463892
8.66,-0.01729272313428598
8.664,-0.017288131390587255
8.668000000000001,-0.017291376863882168
8.672,-0.017299262161961655
8.676,-0.01730455108140521
8.68,-0.01730094499996642
8.684000000000001,-0.017301401770282002
8.688,-0.0172989255943607
8.692,-0.017300512270193767
8.696,-0.017312051730797893
8.700000000000001,-0.017307964838500597
8.704,-0.017299983378249412
8.708,-0.01730207490548391
8.712,-0.01730664260863971
8.716,-0.017314984677034774
8.72,-0.01731856671793064
8.724,-0.01730623391940998
8.728,-0.017304887649006166
8.732,-0.017304358757061808
8.736,-0.017311402636138912
8.74,-0.017322100677740655
8.744,-0.017312292136227148
8.748,-0.017291761512568973
8.752,-0.017287169768870247
8.756,-0.017291328782796316
8.76,-0.017302868243400445
8.764,-0.017311739203739865
8.768,-0.017311787284825717
8.772,-0.017312099811883745
8.776,-0.017299983378249412
8.78,-0.01729745912124226
8.784,-0.017315273163549878
8.788,-0.017335851868293905
8.792,-0.017335419138521248
8.796,-0.01731181132536864
8.8,-0.017299911256620636
8.804,-0.017315441447350356
8.808,-0.01733094759753715
8.812,-0.01732647605655305
8.816,-0.017302315310913162
8.82,-0.017292699093743057
8.824,-0.017295968607580894
8.828,-0.01730467128411984
8.832,-0.017314888514863076
8.836,-0.017315537609522057
8.84,-0.017302964405572142
8.844,-0.01730303652720092
8.848,-0.01730495977063494
8.852,-0.017313061433600754
8.856,-0.017316811758297097
8.86,-0.017312604663285176
8.864,-0.01731546548789328
8.868,-0.01731637902852444
8.872,-0.017326187570037947
8.876,-0.017334986408748594
8.88,-0.01731998510996323
8.884,-0.017333736300516482
8.888,-0.017350805085993418
8.892,-0.01733729430086942
8.896,-0.01732318250217229
8.9,-0.017326956867411557
8.904,-0.017331933259797087
8.908,-0.01733159669219613
8.912,-0.017326548178181828
8.916,-0.01732770212424224
8.92,-0.017326500097095975
8.924,-0.017331692854367833
8.928,-0.01732479321854828
8.932,-0.01731188344699742
8.936,-0.017314383663461642
8.94,-0.01732222088045528
8.944,-0.017328591624330474
8.948,-0.017329312840618234
8.952,-0.017322244920998205
8.956,-0.01731633094743859
8.96,-0.01731464810943382
8.964,-0.01732724535392666
8.968,-0.017337005814354316
8.972,-0.017328375259444147
8.976,-0.01732080248842269
8.98,-0.017320417839735886
8.984,-0.01732419220497515
8.988,-0.017325514434836042
8.992,-0.017323158461629365
8.996,-0.017319504299104727
9.0,-0.017323470988687393
9.004,-0.0173240479617176
9.008000000000001,-0.01732755788098469
9.012,-0.017326427975467202
9.016,-0.01732428836714685
9.02,-0.01731505679866355
9.024000000000001,-0.01731222001459837
9.028,-0.01732094673168024
9.032,-0.017332101543597562
9.036,-0.017326764543068154
9.040000000000001,-0.01731765317729948
9.044,-0.01732202855611188
9.048,-0.01733724621978357
9.052,-0.01733186113816831
9.056000000000001,-0.0173173887313273
9.06,-0.01731678771775417
9.064,-0.017323735434659572
9.068,-0.017345179598948907
9.072000000000001,-0.017367224776811373
9.076,-0.017341429274252564
9.08,-0.017323975840088823
9.084,-0.017329120516274832
9.088000000000001,-0.017335996111551455
9.092,-0.017352439842912334
9.096,-0.01735241580236941
9.1,-0.017327028989040334
9.104000000000001,-0.017329360921704083
9.108,-0.017334505597890088
9.112,-0.017352151356397234
9.116,-0.017348545274958445
9.120000000000001,-0.01733159669219613
9.124,-0.01733159669219613
9.128,-0.017333736300516482
9.132,-0.017347511531612656
9.136000000000001,-0.017349651139933007
9.14,-0.017332967003142873
9.144,-0.017329625367676262
9.148,-0.017333736300516482
9.152000000000001,-0.01733638076023826
9.156,-0.017348785680387696
9.16,-0.01734780001812776
9.164,-0.0173400349227629
9.168000000000001,-0.017337029854897244
9.172,-0.017336525003495813
9.176,-0.017349530937218378
9.18,-0.0173446987880904
9.184000000000001,-0.017340299368735077
9.188,-0.01733428923300376
9.192,-0.017339265625389292
9.196,-0.01733597207100853
9.200000000000001,-0.017331740935453685
9.204,-0.017326932826868632
9.208,-0.01732866374595925
9.212,-0.017332245786855115
9.216000000000001,-0.017337222179240643
9.22,-0.01733729430086942
9.224,-0.017334409435718387
9.228,-0.017339097341588814
9.232,-0.01734642970718102
9.236,-0.017346718193696122
9.24,-0.017336260557523634
9.244,-0.017331019719165928
9.248,-0.017318542677387715
9.252,-0.017320273596478333
9.256,-0.01732952920550456
9.26,-0.017338953098331264
9.264,-0.01733933774701807
9.268,-0.01733159669219613
9.272,-0.017325081705063385
9.276,-0.017310368892793124
9.28,-0.017318182069243834
9.284,-0.017326548178181828
9.288,-0.01732916859736068
9.292,-0.017327581921527613
9.296,-0.017319552380190575
9.3,-0.01731724448806975
9.304,-0.017314624068890897
9.308,-0.017312340217312996
9.312,-0.01731354224445926
9.316,-0.017322581488599158
9.32,-0.017328447381072924
9.324,-0.01732455281311903
9.328,-0.01731861479901649
9.332,-0.017317965704357507
9.336,-0.0173218602723114
9.34,-0.017311378595595985
9.344,-0.017309238987275637
9.348,-0.017312845068714427
9.352,-0.0173103448522502
9.356,-0.017310561217136526
9.36,-0.017303469256973576
9.364,-0.01730019974313574
9.368,-0.017298685188931448
9.372,-0.01730171429734003
9.376,-0.01731075354147993
9.38,-0.017316018420380563
9.384,-0.01730019974313574
9.388,-0.01729130474225339
9.392,-0.017291689390940196
9.396,-0.01729380495871762
9.4,-0.01730760423035672
9.404,-0.01730147389191078
9.408,-0.017284429146976765
9.412,-0.017279765281649265
9.416,-0.017287722701357526
9.42,-0.017282746308972
9.424,-0.01729034312053638
9.428,-0.0172876024986429
9.432,-0.01729029503945053
9.436,-0.017292242323427475
9.44,-0.01729919004033288
9.444,-0.017299742972820158
9.448,-0.01728440510643384
9.452,-0.01728904493121842
9.456,-0.017305128054435417
9.46,-0.017301161364852748
9.464,-0.01730303652720092
9.468,-0.017298324580787568
9.472,-0.017274428281119858
9.476,-0.01726060496893783
9.48,-0.01726348983408886
9.484,-0.01727450040274863
9.488,-0.017283924295575334
9.492,-0.01728618410661031
9.496,-0.017268490267017315
9.5,-0.017264403374720023
9.504,-0.017270677956423515
9.508000000000001,-0.017278346889616675
9.512,-0.01728120771422478
9.516,-0.017276712132697755
9.52,-0.01727416383514768
9.524000000000001,-0.017276303443468026
9.528,-0.01727923638970491
9.532,-0.01727435615949108
9.536,-0.01726416296929077
9.540000000000001,-0.01725940294179157
9.544,-0.017268346023759765
9.548,-0.017263561955717637
9.552,-0.017265725604580912
9.556000000000001,-0.01726873067244657
9.56,-0.017251637846426707
9.564,-0.017246228724268522
9.568,-0.017253969779090456
9.572000000000001,-0.017253464927689026
9.576,-0.017251108954482352
9.58,-0.017249257832677105
9.584,-0.01724745479195771
9.588000000000001,-0.017245002656579335
9.592,-0.01724798368390207
9.596,-0.017256638279355162
9.6,-0.017260677090566605
9.604000000000001,-0.017254979481893317
9.608,-0.01725526796840842
9.612,-0.017250988751767726
9.616,-0.017254907360264544
9.620000000000001,-0.017248897224533228
9.624,-0.017252623508686643
9.628,-0.017248151967702543
9.632,-0.01725223885999984
9.636000000000001,-0.017242911129344837
9.64,-0.017247190345985534
9.644,-0.017251613805883782
9.648,-0.01724872894073275
9.652000000000001,-0.017241204250797143
9.656,-0.017237838574787605
9.66,-0.017241733142741498
9.664,-0.017251397440997455
9.668000000000001,-0.017260869414910007
9.672,-0.017264643780149275
9.676,-0.017261205982510963
9.68,-0.01725740757672877
9.684000000000001,-0.017250796427424324
9.688,-0.017259162536362314
9.692,-0.017256638279355162
9.696,-0.017250940670681874
9.700000000000001,-0.017256998887499042
9.704,-0.017250700265252623
9.708,-0.01724187738599905
9.712,-0.01723740584501495
9.716000000000001,-0.017232309249914795
9.72,-0.017233391074346432
9.724,-0.01723553068266678
9.728,-0.01724324769694579
9.732,-0.01723863191270414
9.736,-0.01723074661462465
9.74,-0.017233078547288404
9.744,-0.017233631479775684
9.748,-0.017235097952894126
9.752,-0.01723238137154357
9.756,-0.017236420182755015
9.76,-0.01724384871051892
9.764,-0.017238704034332916
9.768,-0.017225457695181093
9.772,-0.017210961247797158
9.776,-0.017215817437468063
9.78,-0.01723401612846249
9.784,-0.017250459859823368
9.788,-0.017250988751767726
9.792,-0.017225481735724017
9.796,-0.017218341694475215
9.8,-0.017220192816280462
9.804,-0.017227741546758994
9.808,-0.017234593101492696
9.812,-0.017236828871984744
9.816,-0.01723024176322322
9.82,-0.017221250600169172
9.824,-0.017221491005598426
9.828,-0.01722408738423435
9.832,-0.017229664790193014
9.836,-0.017223895059890953
9.84,-0.017214062477834517
9.844,-0.017206874355499866
9.848,-0.017205143436409245
9.852,-0.01721913503239175
9.856,-0.017226154870925926
9.86,-0.0172281261954458
9.864,-0.017217500275472832
9.868,-0.017213773991319414
9.872,-0.01720807638264613
9.876,-0.01721206711277172
9.88,-0.017217668559273307
9.884,-0.0172190869513059
9.888,-0.017217981086331335
9.892,-0.017217596437644533
9.896,-0.017223654654461698
9.9,-0.01722896761444818
9.904,-0.017216658856470446
9.908,-0.017213004693945808
9.912,-0.017211994991142947
9.916,-0.01722485668160796
9.92,-0.017229063776619882
9.924,-0.017228991654991106
9.928,-0.01721949564053563
9.932,-0.017207835977216875
9.936,-0.01721100932888301
9.94,-0.01720968709902212
9.944,-0.017207379206901297
9.948,-0.01721863018099032
9.952,-0.017210768923453756
9.956,-0.01720456646337904
9.96,-0.01720721092310082
9.964,-0.01720629738246966
9.968,-0.017210023666623074
9.972,-0.01721105740996886
9.976,-0.01722471243835041
9.98,-0.01721370186969064
9.984,-0.01719781107081704
9.988,-0.01720535980129557
9.992,-0.017213725910233565
9.996,-0.017212980653402883
10.0,-0.01721786088361671
10.004,-0.017208917801648512
10.008000000000001,-0.0172053838418385
10.012,-0.017205047274237543
10.016,-0.01720201816582896
10.02,-0.017207643652873472
10.024000000000001,-0.017216418451041195
10.028,-0.017214038437291593
10.032,-0.017211850747885393
10.036,-0.01720908608544899
10.040000000000001,-0.01720963901793627
10.044,-0.017212403680372676
10.048,-0.017217163707871876
10.052,-0.017217235829500653
10.056000000000001,-0.017218293613389366
10.06,-0.017211033369425935
10.064,-0.01720771577450225
10.068,-0.01721627420778364
10.072000000000001,-0.017190310421424358
10.076,-0.017189661326765377
10.08,-0.01720680223387109
10.084,-0.017206706071699388
10.088000000000001,-0.017201705638770933
10.092,-0.017202907665917196
10.096,-0.017201296949541204
10.1,-0.017201657557685084
10.104000000000001,-0.017198700570905275
10.108,-0.01720151331442753
10.112,-0.017208557193504632
10.116,-0.017209711139565046
10.120000000000001,-0.017211706504627843
10.124,-0.017200311287281268
10.128,-0.017199013097963303
10.132,-0.017204542422836113
10.136000000000001,-0.017202234530715288
10.14,-0.017194950246208936
10.144,-0.017191800935085724
10.148,-0.01719704177344343
10.152000000000001,-0.01720096038194025
10.156,-0.017192882759517362
10.16,-0.017196080151726422
10.164,-0.017201080584654877
10.168000000000001,-0.01720201816582896
10.172,-0.017201705638770933
10.176,-0.017211225693769337
10.18,-0.017216202086154868
10.184000000000001,-0.017193628016348043
10.188,-0.017184252204607193
10.192,-0.01719110375934089
10.196,-0.017200719976510997
10.200000000000001,-0.01720045553053882
10.204,-0.017199301584478407
10.208,-0.017195455097610366
10.212,-0.01718716111030115
10.216000000000001,-0.01718908435373517
10.22,-0.01719345973254757
10.224,-0.01719365205689097
10.228,-0.017192137502686677
10.232000000000001,-0.0171962484355269
10.236,-0.017194589638065055
10.24,-0.017187449596816253
10.244,-0.01718932475916442
10.248,-0.01718716111030115
10.252,-0.01719365205689097
10.256,-0.017211033369425935
10.26,-0.017196008030097645
10.264,-0.01718167986651419
10.268,-0.017177232366073016
10.272,-0.017175309122638992
10.276,-0.017181319258370308
10.28,-0.017178386312133427
10.284,-0.0171802614744816
10.288,-0.017184035839720866
10.292,-0.017183482907233583
10.296,-0.017177040041729614
10.3,-0.01717802570398955
10.304,-0.01717831419050465
10.308,-0.017179804704166017
10.312,-0.01718456473166522
10.316,-0.017189973853823405
10.32,-0.01718446856949352
10.324,-0.01718062208262548
10.328,-0.0171851176641525
10.332,-0.017189396880793198
10.336,-0.01718766596170258
10.34,-0.01718564655609686
10.344,-0.0171848291776374
10.348,-0.017175092757752666
10.352,-0.0171645629999514
10.356,-0.01716751998673121
10.36,-0.01717470810906586
10.364,-0.017179371974393363
10.368,-0.017171823243914832
10.372,-0.017171174149255848
10.376,-0.017178242068875877
10.38,-0.017182160677372695
10.384,-0.01717574185241165
10.388,-0.01717309739268987
10.392,-0.017171943446629458
10.396,-0.017174491744179534
10.4,-0.017193483773090493
10.404,-0.01719437327317873
10.408,-0.017184348366778894
10.412,-0.0171759822578409
10.416,-0.01717167900065728
10.42,-0.017171847284457756
10.424,-0.017172496379116737
10.428,-0.017173217595404498
10.432,-0.017169323027450605
10.436,-0.017168649892248696
10.44,-0.01717278486563184
10.444,-0.01717278486563184
10.448,-0.017170981824912446
10.452,-0.017176967920100837
10.456,-0.017184492610036444
10.46,-0.017187353434644552
10.464,-0.017194132867749474
10.468,-0.017192209624315453
10.472,-0.01716715937858733
10.476,-0.01715867306693471
10.48,-0.017167135338044405
10.484,-0.017174179217121506
10.488,-0.017178458433762204
10.492,-0.017182353001716097
10.496,-0.017180477839367925
10.5,-0.01717273678454599
10.504,-0.017166125635241544
10.508000000000001,-0.017163841783663644
10.512,-0.01716071651308336
10.516,-0.017161750256429145
10.52,-0.01716172621588622
10.524000000000001,-0.017164514918865552
10.528,-0.017163096526832962
10.532,-0.01715934620213662
10.536,-0.01717177516282898
10.540000000000001,-0.017183074218003854
10.544,-0.017168000797589716
10.548,-0.01716021166168193
10.552,-0.017171414554685103
10.556000000000001,-0.01717867479864853
10.56,-0.01716619775687032
10.564,-0.017156942147844093
10.568,-0.017161966621315472
10.572000000000001,-0.017166534324471273
10.576,-0.017163481175519763
10.58,-0.017155716080154905
10.584,-0.01715725467490212
10.588000000000001,-0.017157975891189878
10.592,-0.017155932445041232
10.596,-0.01715650941807144
10.6,-0.01716557270275426
10.604000000000001,-0.017173361838662048
10.608,-0.017175092757752666
10.612,-0.017170933743826597
10.616,-0.01716711129750148
10.620000000000001,-0.01716136560774234
10.624,-0.017153360106948227
10.628,-0.01714742209284569
10.632,-0.017153215863690677
10.636000000000001,-0.01715994721570975
10.64,-0.01716126944557064
10.644,-0.01715477849898082
10.648,-0.017145859457555545
10.652000000000001,-0.017141243673313895
10.656,-0.01715126857971373
10.66,-0.017156485377528514
10.664,-0.017155403553096877
10.668000000000001,-0.0171598029724522
10.672,-0.01716035590493948
10.676,-0.01716163005371452
10.68,-0.01716583714872644
10.684000000000001,-0.0171733137575762
10.688,-0.01717146263577095
10.692,-0.017162158945658874
10.696,-0.017153287985319454
10.700000000000001,-0.017152374444688295
10.704,-0.017145883498098473
10.708,-0.01713847901087749
10.712,-0.0171393444704228
10.716000000000001,-0.017140762862455392
10.72,-0.017139488713680352
10.724,-0.01714258994371771
10.728,-0.01714593157918432
10.732000000000001,-0.017151701309486386
10.736,-0.01715944236430832
10.74,-0.01716004337788145
10.744,-0.017152109998716115
10.748000000000001,-0.017151412822971283
10.752,-0.01715701426947287
10.756,-0.017161485810456966
10.76,-0.017159057715621515
10.764,-0.017148576038906103
10.768,-0.017146893200901334
10.772,-0.0171483837145627
10.776,-0.017138983862278922
10.78,-0.01713710869993075
10.784,-0.01714761441718909
10.788,-0.017153480309662857
10.792,-0.0171531437420619
10.796,-0.017154850620609594
10.8,-0.017150835849941076
10.804,-0.017151797471658087
10.808,-0.01715098009319863
10.812,-0.017150932012112777
10.816,-0.01714684511981548
10.82,-0.017149489579537262
10.824,-0.017151004133741553
10.828,-0.01714742209284569
10.832,-0.01714345540326302
10.836,-0.017151508985142984
10.84,-0.01715862498584886
10.844,-0.0171370606188449
10.848,-0.01712939168565174
10.852,-0.017140931146255867
10.856,-0.017146532592757453
10.86,-0.01715619689101341
10.864,-0.01716004337788145
10.868,-0.017152350404145367
10.872,-0.01714720572795936
10.876,-0.01714734997121691
10.88,-0.017150739687769374
10.884,-0.017153239904233602
10.888,-0.01715146090405713
10.892,-0.017149633822794812
10.896,-0.017152061917630263
10.9,-0.017149008768678756
10.904,-0.017148455836191474
10.908,-0.017150138674196243
10.912,-0.017145138241267788
10.916,-0.017145546930497517
10.92,-0.017152422525774143
10.924,-0.017147446133388613
10.928,-0.01713838284870579
10.932,-0.017129511888366367
10.936,-0.017130353307368753
10.94,-0.01713701253775905
10.944,-0.017156220931556335
10.948,-0.017162976324118333
10.952,-0.01713828668653409
10.956,-0.017123285387748724
10.96,-0.017129632091080992
10.964,-0.017140354173225663
10.968,-0.017145498849411668
10.972,-0.017151412822971283
10.976,-0.017152711012289247
10.98,-0.017144969957467313
10.984,-0.017139248308251098
10.988,-0.017145979660270174
10.992,-0.01715162918785761
10.996,-0.017155018904410072
11.0,-0.01715929812105077
11.004,-0.017158504783134236
11.008000000000001,-0.017162423391631054
11.012,-0.017164082189092895
11.016,-0.017145042079096087
11.02,-0.01713727698373123
11.024000000000001,-0.017136411524185918
11.028,-0.017135666267355236
11.032,-0.01714386409249275
11.036,-0.017151941714915638
11.040000000000001,-0.017140282051596886
11.044,-0.017125617320412474
11.048,-0.017122323766031716
11.052,-0.017126290455614382
11.056000000000001,-0.017138575173049193
11.06,-0.017145979660270174
11.064,-0.017145643092669218
11.068,-0.017145619052126294
11.072000000000001,-0.017144537227694656
11.076,-0.017143094795119142
11.08,-0.017142205295030907
11.084,-0.017143214997833767
11.088000000000001,-0.01713710869993075
11.092,-0.017134295956408495
11.096,-0.017140233970511034
11.1,-0.017145306525068266
11.104000000000001,-0.017150138674196243
11.108,-0.01713417575369387
11.112,-0.017115568373469715
11.116,-0.017115880900527743
11.120000000000001,-0.017122419928203413
11.124,-0.017132829483290053
11.128,-0.017137805875675583
11.132,-0.017140282051596886
11.136000000000001,-0.017140426294854436
11.14,-0.01713939255150865
11.144,-0.01713710869993075
11.148,-0.01714299863294744
11.152000000000001,-0.01715030695799672
11.156,-0.01714528248452534
11.16,-0.01714316691674792
11.164,-0.017142926511318664
11.168000000000001,-0.0171529514177185
11.172,-0.017165260175696233
11.176,-0.017136315362014216
11.18,-0.017117034846588157
11.184000000000001,-0.01711905425219388
11.188,-0.017129343604565892
11.192,-0.017131915942658893
11.196,-0.017127540563846497
11.200000000000001,-0.01713112260474236
11.204,-0.017134656564552375
11.208,-0.01713331029414856
11.212,-0.017131387050714538
11.216000000000001,-0.01713047351008338
11.22,-0.01713121876691406
11.224,-0.017129776334338546
11.228,-0.017130954320941885
11.232000000000001,-0.017132661199489578
11.236,-0.017140762862455392
11.24,-0.01715213403925904
11.244,-0.01713172361831549
11.248000000000001,-0.017118212833191492
11.252,-0.017121963157887835
11.256,-0.017122155482231238
11.26,-0.017128814712621534
11.264,-0.017132973726547606
11.268,-0.017137589510789256
11.272,-0.017132613118403726
11.276,-0.017127660766561123
11.28,-0.017124198928379884
11.284,-0.017123381549920425
11.288,-0.017127540563846497
11.292,-0.017134800807809925
11.296,-0.017131363010171614
11.3,-0.017117563738532512
11.304,-0.017125328833897373
11.308,-0.017135714348441085
11.312,-0.01712595388801343
11.316,-0.017122419928203413
11.32,-0.017120015873910887
11.324,-0.017115472211298013
11.328,-0.0171211698199713
11.332,-0.017125905806927577
11.336,-0.01712508842846812
11.34,-0.017121458306486405
11.344,-0.017119078292736803
11.348,-0.017115472211298013
11.352,-0.017117275252017408
11.356,-0.017119078292736803
11.36,-0.01712645873941486
11.364,-0.017126819347558737
11.368,-0.017108861061993566
11.372,-0.017111192994657316
11.376,-0.017109269751223295
11.38,-0.01711208249474555
11.384,-0.017110856427056363
11.388,-0.017117707981790062
11.392,-0.01712686742864459
11.396,-0.017122155482231238
11.4,-0.017113789373293244
11.404,-0.01711239502180358
11.408,-0.017113789373293244
11.412,-0.01711508756261121
11.416,-0.017113188359720113
11.42,-0.017114558670666854
11.424,-0.017116770400615978
11.428,-0.017112202697460176
11.432,-0.017102057588345716
11.436,-0.01709873999342203
11.44,-0.01710763499430438
11.444,-0.017104413561552394
11.448,-0.01709590320935685
11.452,-0.017091623992716153
11.456,-0.01709311450637752
11.46,-0.017095686844470524
11.464,-0.01710179314237354
11.468,-0.017104389521009466
11.472,-0.017095085830897392
11.476,-0.017095206033612018
11.48,-0.017096576344558755
11.484,-0.01710056707468435
11.488,-0.0171074667105039
11.492,-0.017111385319000718
11.496,-0.0171097505620818
11.5,-0.01710645700770104
11.504,-0.017114246143608826
11.508000000000001,-0.017115832819441894
11.512,-0.017103572142550007
11.516,-0.017103307696577832
11.52,-0.01710152869640136
11.524000000000001,-0.017094653101124735
11.528,-0.01709402804700868
11.532,-0.017092465411718535
11.536,-0.01709001327634016
11.540000000000001,-0.017092008641402957
11.544,-0.017096119574243177
11.548,-0.01709645614184413
11.552,-0.017105254980554777
11.556000000000001,-0.017102538399204222
11.56,-0.017099341006995162
11.564,-0.01709549452012712
11.568,-0.017098547669078628
11.572000000000001,-0.01710549538598403
11.576,-0.0171075628726756
11.58,-0.017100615155770202
11.584,-0.01709530219578372
11.588000000000001,-0.01708626295164382
11.592,-0.01708347424866449
11.596,-0.01708818619507784
11.6,-0.017084099302780546
11.604000000000001,-0.017079772005054
11.608,-0.017090301762855264
11.612,-0.017093234709092145
11.616,-0.017093090465834595
11.620000000000001,-0.01709260965497609
11.624,-0.017094556938953034
11.628,-0.0170981389798489
11.632,-0.017097610087904544
11.636000000000001,-0.01709748988518992
11.64,-0.01709169611434493
11.644,-0.01709513391198324
11.648,-0.017107154183445872
11.652000000000001,-0.01710530306164063
11.656,-0.01708768134367641
11.66,-0.017079988369940326
11.664,-0.017076117842529357
11.668000000000001,-0.01708580618132824
11.672,-0.017087440938247156
11.676,-0.01708229626206115
11.68,-0.01708599850567164
11.684000000000001,-0.01708530132992681
11.688,-0.017085109005583406
11.692,-0.017091623992716153
11.696,-0.01709438865515256
11.700000000000001,-0.01709905252048006
11.704,-0.017101095966628708
11.708,-0.017102394155946672
11.712,-0.01710169698020184
11.716000000000001,-0.01710193738563109
11.72,-0.017101456574772585
11.724,-0.017104822250782123
11.728,-0.017091263384572272
11.732000000000001,-0.01708001241048325
11.736,-0.017084700316353677
11.74,-0.01708758518150471
11.744,-0.01708489264069708
11.748000000000001,-0.017091047019685945
11.752,-0.01708772942476226
11.756,-0.017081070194371963
11.76,-0.017084147383866394
11.764000000000001,-0.01708599850567164
11.768,-0.017084459910924426
11.772,-0.01708306555943476
11.776,-0.0170820558566319
11.78,-0.017079699883425222
11.784,-0.017077031383160517
11.788,-0.017084748397439526
11.792,-0.017092922182034117
11.796,-0.01709621573641488
11.8,-0.01710193738563109
11.804,-0.017102009507259867
11.808,-0.017097129277046038
11.812,-0.01708991711416846
11.816,-0.01708530132992681
11.82,-0.01708407526223762
11.824,-0.01708027685645543
11.828,-0.01708270495129088
11.832,-0.017086479316530147
11.836,-0.017077800680534126
11.84,-0.017076045720900584
11.844,-0.01707667077501664
11.848,-0.01707203095023206
11.852,-0.01707128569340138
11.856,-0.01707138185557308
11.86,-0.017076983302074668
11.864,-0.017078545937364808
11.868,-0.017072824288148596
11.872,-0.017058928854337796
11.876,-0.017057053691989624
11.88,-0.017071502058287707
11.884,-0.017075829356014254
11.888,-0.01706693435513191
11.892,-0.017067246882189937
11.896,-0.017068304666078647
11.9,-0.01707169438263111
11.904,-0.017069843260825866
11.908,-0.017067294963275786
11.912,-0.017063376354778968
11.916,-0.01706282342229169
11.92,-0.01706996346354049
11.924,-0.017072127112403763
11.928,-0.017064458179210606
11.932,-0.01706260705740536
11.936,-0.017063857165637474
11.94,-0.01706296766554924
11.944,-0.017067198801104085
11.948,-0.017079026748223314
11.952,-0.017072511761090568
11.956,-0.01705169265091729
11.96,-0.01706053957071379
11.964,-0.017062727260119988
11.968,-0.017069554774310762
11.972,-0.017072920450320297
11.976,-0.017069578814853686
11.98,-0.017063785044008697
11.984,-0.01706114058428692
11.988,-0.017065876571243196
11.992,-0.017066044855043674
11.996,-0.017067463247076264
12.0,-0.01706731900381871
12.004,-0.01706767961196259
12.008000000000001,-0.017069314368881507
12.012,-0.017073497423350504
12.016,-0.017073329139550026
12.02,-0.017075733193842552
12.024000000000001,-0.017077608356190724
12.028,-0.017071814585345735
12.032,-0.017064626463011084
12.036,-0.017068881639108854
12.040000000000001,-0.01706904992290933
12.044,-0.017064914949526184
12.048,-0.01705945774628215
12.052,-0.017056885408189146
12.056000000000001,-0.01705347165109376
12.06,-0.017052221542861647
12.064,-0.017057510462305202
12.068,-0.01706229453034733
12.072000000000001,-0.017061356949173247
12.076,-0.017061669476231275
12.08,-0.017065708287442718
12.084,-0.017064602422468156
12.088000000000001,-0.017066549706445104
12.092,-0.01707133377448723
12.096,-0.01707193478806036
12.1,-0.01706246281414781
12.104000000000001,-0.017055563178328258
12.108,-0.017048567380337006
12.112,-0.017054361151181995
12.116,-0.01706255897631951
12.120000000000001,-0.017057390259590577
12.124,-0.017052221542861647
12.128,-0.01705561125941411
12.132,-0.017052341745576273
12.136000000000001,-0.017051524367116815
12.14,-0.017055106408012676
12.144,-0.017056452678416493
12.148,-0.017057895110992007
12.152000000000001,-0.01705585166484336
12.156,-0.017052870637520628
12.16,-0.017056284394616015
12.164,-0.017058063394792485
12.168000000000001,-0.017054817921497576
12.172,-0.01705128396168756
12.176,-0.017046499893645435
12.18,-0.017045273825956244
12.184000000000001,-0.01704460069075434
12.188,-0.017041523501259905
12.192,-0.017047461515362444
12.196,-0.017047413434276595
12.200000000000001,-0.01704359098795148
12.204,-0.017041307136373578
12.208,-0.01703712408190458
12.212,-0.017030657175857684
12.216000000000001,-0.017034647905983278
12.22,-0.017040682082257518
12.224,-0.0170455142313855
12.228,-0.01704565847464305
12.232000000000001,-0.017043855433923654
12.236,-0.017042701487863243
12.24,-0.017047148988304416
12.244,-0.017046836461246388
12.248000000000001,-0.017050658907571504
12.252,-0.017049144353367213
12.256,-0.01704777404242047
12.26,-0.01704089844714385
12.264000000000001,-0.017032989108521433
12.268,-0.017026690486275014
12.272,-0.017031330311059592
12.276,-0.017034359419468174
12.280000000000001,-0.01703164283811762
12.284,-0.017032772743635106
12.288,-0.017033493959922864
12.292,-0.017032941027435584
12.296,-0.017029815756855297
12.3,-0.01702959939196897
12.304,-0.017034864270869605
12.308,-0.01704356694740855
12.312,-0.01704717302884734
12.316,-0.017047341312647818
12.32,-0.017051332042773412
12.324,-0.01704246108243399
12.328,-0.017036499027788525
12.332,-0.017038157825250366
12.336,-0.0170433265419793
12.34,-0.01704666817744591
12.344,-0.017050418502142253
12.348,-0.017047148988304416
12.352,-0.01703560952770029
12.356,-0.017036186500730497
12.36,-0.017039936825426837
12.364,-0.017036907717018254
12.368,-0.017047413434276595
12.372,-0.01704839909653653
12.376,-0.017042268758090586
12.38,-0.017044552609668487
12.384,-0.01704621140713033
12.388,-0.017046475853102507
12.392,-0.01704844717762238
12.396,-0.017047918285678025
12.4,-0.0170456103935572
12.404,-0.01704844717762238
12.408,-0.017046067163872778
12.412,-0.017046451812559583
12.416,-0.017054457313353696
12.42,-0.017047822123506324
12.424,-0.017043302501436375
12.428,-0.017045538271928423
12.432,-0.01704373523120903
12.436,-0.01704099460931555
12.44,-0.0170412350147448
12.444,-0.017045273825956244
12.448,-0.017045033420526993
12.452,-0.01704784616404925
12.456,-0.017047221109933192
12.46,-0.01705178881308899
12.464,-0.01705895289488072
12.468,-0.01704972132639742
12.472,-0.017038662676651797
12.476,-0.01703512871684178
12.48,-0.017036667311589
12.484,-0.01705392842140934
12.488,-0.017065107273869586
12.492,-0.01705895289488072
12.496,-0.017051332042773412
12.5,-0.017046451812559583
12.504,-0.017045297866499172
12.508000000000001,-0.017051933056346544
12.512,-0.01705169265091729
12.516,-0.017043759271751953
12.52,-0.01704140329854528
12.524000000000001,-0.017036090338558796
12.528,-0.01704077824442922
12.532,-0.01704250916351984
12.536,-0.017048158691107276
12.540000000000001,-0.01704500937998407
12.544,-0.017039480055111255
12.548,-0.017035489324985664
12.552,-0.017025199972613647
12.556000000000001,-0.01702854160808026
12.56,-0.017036066298015868
12.564,-0.01703154667594592
12.568,-0.0170300080811987
12.572000000000001,-0.0170323880949483
12.576,-0.017031859203003947
12.58,-0.01703260445983463
12.584,-0.017039167528053227
12.588000000000001,-0.017042340879719363
12.592,-0.017045394028670873
12.596,-0.01704484109618359
12.6,-0.017039912784883912
12.604000000000001,-0.017037316406247983
12.608,-0.017039167528053227
12.612,-0.01704479301509774
12.616,-0.017037989541449892
12.620000000000001,-0.017026137553787735
12.624,-0.01702676260790379
12.628,-0.017029407067625568
12.632,-0.017031258189430815
12.636000000000001,-0.017032099608433198
12.64,-0.017026041391616033
12.644,-0.017020199539685192
12.648,-0.017020488026200296
12.652000000000001,-0.0170186849854809
12.656,-0.017022531472348945
12.66,-0.01702721937821937
12.664,-0.01702447875632589
12.668000000000001,-0.017018324377337024
12.672,-0.017018108012450697
12.676,-0.017027291499848145
12.68,-0.017029407067625568
12.684000000000001,-0.017030561013685983
12.688,-0.01702868585133781
12.692,-0.017022531472348945
12.696,-0.01701904559362478
12.700000000000001,-0.01701976680991254
12.704,-0.017020752472172475
12.708,-0.01702676260790379
12.712,-0.017032267892233676
12.716000000000001,-0.01702584906727263
12.72,-0.01701661749878933
12.724,-0.017020656310000774
12.728,-0.017023132485922077
12.732000000000001,-0.01701931003959696
12.736,-0.017011761309118426
12.74,-0.017003611565066763
12.744,-0.017000919024259133
12.748000000000001,-0.017004909754384727
12.752,-0.017022218945290917
12.756,-0.01702885413513829
12.76,-0.017028229081022233
12.764000000000001,-0.01702777231070665
12.768,-0.017024622999583443
12.772,-0.01702279591832112
12.776,-0.017020800553258324
12.780000000000001,-0.017018396498965797
12.784,-0.017020439945114447
12.788,-0.017024094107639085
12.792,-0.017019478323397435
12.796000000000001,-0.017016545377160554
12.8,-0.01701219403889108
12.804,-0.017008251389851337
12.808,-0.017004452984069145
12.812,-0.0170025057000922
12.816,-0.017005630970672484
12.82,-0.017014261525582653
12.824,-0.017018252255708247
12.828,-0.01701935812068281
12.832,-0.017019574485569136
12.836,-0.01701498274187041
12.84,-0.017013347984951493
12.844,-0.017014045160696326
12.848,-0.017012602728120812
12.852,-0.01701955044502621
12.856,-0.017030344648799656
12.86,-0.017020391864028594
12.864,-0.016991663415232908
12.868,-0.01699255291532114
12.872,-0.017000293970143077
12.876,-0.017002601862263902
12.88,-0.01701387687689585
12.884,-0.017021810256061184
12.888,-0.017018252255708247
12.892,-0.01701356434983782
12.896,-0.01701315566060809
12.9,-0.017015199106756737
12.904,-0.017012602728120812
12.908,-0.01701301141735054
12.912,-0.017013780714724147
12.916,-0.01701507890404211
12.92,-0.017017843566478518
12.924,-0.01702137752628853
12.928,-0.017022843999406973
12.932,-0.017022579553434794
12.936,-0.017022002580404587
12.94,-0.01701971872882669
12.944,-0.017020151458599343
12.948,-0.017013684552552446
12.952,-0.017014598093183605
12.956,-0.017022723796692348
12.96,-0.017025175932070723
12.964,-0.01702676260790379
12.968,-0.017023396931894252
12.972,-0.017018228215165323
12.976,-0.017019237917968184
12.98,-0.01701726659344831
12.984,-0.017012169998348155
12.988,-0.017009789984598553
12.992,-0.017004356821897444
12.996,-0.017004020254296492
13.0,-0.01701027079545706
13.004,-0.01701209787671938
13.008000000000001,-0.017008972606139094
13.012,-0.01701046311980046
13.016,-0.01701209787671938
13.02,-0.017013179701151016
13.024000000000001,-0.017011665146946724
13.028,-0.017018204174622395
13.032,-0.01702291612103575
13.036,-0.017017723363763892
13.040000000000001,-0.017017050228561984
13.044,-0.017022747837235272
13.048,-0.01702421431035371
13.052,-0.017016184769016673
13.056000000000001,-0.01701089584957312
13.06,-0.017016280931188375
13.064,-0.017015679917615243
13.068,-0.017014766376984083
13.072000000000001,-0.017013997079610474
13.076,-0.017016978106933207
13.08,-0.017019261958511108
13.084,-0.01701743487724879
13.088000000000001,-0.017013900917438776
13.092,-0.01701382879581
13.096,-0.01701077564685849
13.1,-0.0170071695654197
13.104000000000001,-0.01701507890404211
13.108,-0.01701702618801906
13.112,-0.01701291525517884
13.116,-0.01701089584957312
13.120000000000001,-0.017009261092654198
13.124,-0.017007458051934803
13.128,-0.01700793886279331
13.132,-0.01701022271437121
13.136000000000001,-0.017010799687401417
13.14,-0.017018204174622395
13.144,-0.01702260359397772
13.148,-0.017021954499318738
13.152000000000001,-0.017022892080492822
13.156,-0.01702351713460888
13.16,-0.017020151458599343
13.164,-0.01702104095868758
13.168000000000001,-0.01702214682366214
13.172,-0.017026233715959436
13.176,-0.017024046026553236
13.18,-0.01702169005334656
13.184000000000001,-0.017014141322868027
13.188,-0.017012362322691557
13.192,-0.017021930458775814
13.196,-0.01702060822891492
13.200000000000001,-0.017012939295721764
13.204,-0.017007818660078684
13.208,-0.017009477457540525
13.212,-0.017016473255531777
13.216000000000001,-0.017014141322868027
13.22,-0.0170072657275914
13.224,-0.017008780281795692
13.228,-0.017011208376631146
13.232000000000001,-0.017012722930835437
13.236,-0.017014357687754354
13.24,-0.017016809823132733
13.244,-0.0170185888233092
13.248000000000001,-0.01701844458005165
13.252,-0.01701918983688233
13.256,-0.017021978539861662
13.26,-0.017022267026376766
13.264000000000001,-0.017021617931717786
13.268,-0.01702031974239982
13.272,-0.017025272094242424
13.276,-0.01702012741805642
13.280000000000001,-0.017018204174622395
13.284,-0.017015631836529394
13.288,-0.017010703525229716
13.292,-0.01701077564685849
13.296000000000001,-0.017006568551846568
13.3,-0.017008107146593787
13.304,-0.01700777057899283
13.308,-0.017008732200709843
13.312000000000001,-0.017004717430041325
13.316,-0.017006376227503166
13.32,-0.017006135822073914
13.324,-0.017002121051405396
13.328,-0.017001520037832264
13.332,-0.01700428470026867
13.336,-0.017008491795280592
13.34,-0.01701438172829728
13.344,-0.017013035457893465
13.348,-0.017008371592565963
13.352,-0.01701238636323448
13.356,-0.017016304971731303
13.36,-0.017021497729003156
13.364,-0.017017050228561984
13.368,-0.01700995826839903
13.372,-0.01700493379492765
13.376,-0.017007193605962628
13.38,-0.017005318443614456
13.384,-0.017005534808500783
13.388,-0.01700332307855166
13.392,-0.017003082673122408
13.396,-0.01700702532216215
13.4,-0.017009934227856106
13.404,-0.017008972606139094
13.408,-0.017009020687224947
13.412,-0.01700834755202304
13.416,-0.017006231984245616
13.42,-0.01701118433608822
13.424,-0.01700844371419474
13.428,-0.017002433578463424
13.432,-0.0170050780381852
13.436,-0.017005318443614456
13.44,-0.017001688321632742
13.444,-0.01700072669991573
13.448,-0.017002193173034173
13.452,-0.01699743314553497
13.456,-0.016994307874954685
13.46,-0.016994716564184414
13.464,-0.0169958464697019
13.468,-0.016996279199474558
13.472,-0.017001327713488862
13.476,-0.017007818660078684
13.48,-0.01700392409212479
13.484,-0.017008371592565963
13.488,-0.01701346818766612
13.492,-0.017010943930658967
13.496,-0.01701063140360094
13.5,-0.017008924525053246
13.504,-0.017006568551846568
13.508000000000001,-0.01699945255114069
13.512,-0.016999692956569945
13.516,-0.017005871376101735
13.52,-0.017006905119447524
13.524000000000001,-0.01700368368669554
13.528,-0.017003443281266285
13.532,-0.016992192307177263
13.536,-0.016991158563831474
13.540000000000001,-0.016999596794398244
13.544,-0.01700048629448648
13.548,-0.01699752930770667
13.552,-0.016996687888704287
13.556000000000001,-0.017001111348602535
13.56,-0.017006640673475345
13.564,-0.017008371592565963
13.568,-0.017008371592565963
13.572000000000001,-0.017009789984598553
13.576,-0.017009237052111274
13.58,-0.017007073403248
13.584,-0.01700615986261684
13.588000000000001,-0.017007385930306027
13.592,-0.017005775213930034
13.596,-0.017006688754561197
13.6,-0.017004621267869623
13.604000000000001,-0.0169932741316089
13.608,-0.01698291265760811
13.612,-0.016985533076786963
13.616,-0.01698906703659698
13.620000000000001,-0.016988610266281397
13.624,-0.016991615334147055
13.628,-0.01699428383441176
13.632,-0.016995005050699518
13.636000000000001,-0.01699478868581319
13.64,-0.016995990712959454
13.644,-0.016996639807618435
13.648,-0.016993754942467403
13.652000000000001,-0.01699940447005484
13.656,-0.017004813592213026
13.66,-0.01700493379492765
13.664,-0.017002625902806826
13.668000000000001,-0.017006808957275823
13.672,-0.01700757825464943
13.676,-0.017004621267869623
13.68,-0.01699678405087599
13.684000000000001,-0.016995053131785367
13.688,-0.016995990712959454
13.692,-0.01699550990210095
13.696,-0.016993803023553255
13.700000000000001,-0.016995389699386323
13.704,-0.016994764645270263
13.708,-0.016990797955687597
13.712,-0.01698762460402146
13.716000000000001,-0.016992120185548486
13.72,-0.01699945255114069
13.724,-0.017001808524347368
13.728,-0.01700048629448648
13.732000000000001,-0.01699776971313592
13.736,-0.016993995347896657
13.74,-0.016986494698503975
13.744,-0.016985412874072337
13.748000000000001,-0.016987840968907788
13.752,-0.016988610266281397
13.756,-0.016990918158402223
13.76,-0.016989764212341812
13.764000000000001,-0.016988081374337043
13.768,-0.016990749874601745
13.772,-0.01698853814465262
13.776,-0.01698570136058744
13.780000000000001,-0.01698971613125596
13.784,-0.01698971613125596
13.788,-0.01698954784745548
13.792,-0.016993971307353733
13.796000000000001,-0.017003996213753567
13.8,-0.017006544511303644
13.804,-0.017001760443261515
13.808,-0.016991663415232908
13.812000000000001,-0.01698894683388235
13.816,-0.01699387514518203
13.82,-0.01699072583405882
13.824,-0.01698779288782194
13.828,-0.01698971613125596
13.832,-0.016989379563655007
13.836,-0.0169865187390469
13.84,-0.016985268630814787
13.844,-0.01698536479298649
13.848,-0.016981061535802866
13.852,-0.016978224751737683
13.856,-0.016984980144299684
13.86,-0.016985316711900636
13.864,-0.016981878914262324
13.868,-0.0169821433602345
13.872,-0.01698510034701431
13.876,-0.016990148861028613
13.88,-0.01699226442880604
13.884,-0.01698998057722814
13.888,-0.016991831699033382
13.892,-0.016997072537391092
13.896,-0.016997144659019865
13.9,-0.016995149293957068
13.904,-0.016992721199121617
13.908,-0.01699416363169713
13.912,-0.016995918591330678
13.916,-0.01699392322626788
13.92,-0.016995125253414144
13.924,-0.016994259793868833
13.928,-0.016992120185548486
13.932,-0.01698762460402146
13.936,-0.016985941766016692
13.94,-0.016982984779236886
13.944,-0.016977671819250403
13.948,-0.016982528008921305
13.952,-0.016986831266104927
13.956,-0.016979835468113675
13.96,-0.01697392149455406
13.964,-0.016979330616712245
13.968,-0.016983561752267094
13.972,-0.016982528008921305
13.976,-0.016984523373984102
13.98,-0.016987071671534182
13.984,-0.016988417941937995
13.988,-0.016990870077316374
13.992,-0.016992384631520665
13.996,-0.016995029091242442
14.0,-0.016997721632050072
14.004,-0.0170046933894984
14.008000000000001,-0.017007986943879158
14.012,-0.017007458051934803
14.016,-0.017004645308412548
14.02,-0.017000005483627973
14.024000000000001,-0.016998635172681232
14.028,-0.016994043428982506
14.032,-0.01699067775297297
14.036,-0.016988826631167724
14.040000000000001,-0.01699022098265739
14.044,-0.016994404037126386
14.048,-0.01699442807766931
14.052,-0.01698793713107949
14.056000000000001,-0.016980773049287762
14.06,-0.016983345387380763
14.064,-0.016986302374160572
14.068,-0.016988586225738473
14.072000000000001,-0.01698803329325119
14.076,-0.016986951468819553
14.08,-0.016987600563478537
14.084,-0.016985412874072337
14.088000000000001,-0.016984066603668524
14.092,-0.0169867110633903
14.096,-0.016985533076786963
14.1,-0.0169817587115477
14.104000000000001,-0.016982023157519874
14.108,-0.016986326414703497
14.112,-0.016991831699033382
14.116,-0.016998563051052455
14.120000000000001,-0.016999332348426065
14.124,-0.01699712061847694
14.128,-0.01700026992960015
14.132,-0.017004813592213026
14.136000000000001,-0.017002337416291723
14.14,-0.016998635172681232
14.144,-0.016993995347896657
14.148,-0.01698853814465262
14.152000000000001,-0.01698173467100477
14.156,-0.016981037495259938
14.16,-0.016985148428100158
14.164,-0.016988225617594593
14.168000000000001,-0.016986398536332274
14.172,-0.01698245588729253
14.176,-0.01698534075244356
14.18,-0.01698493206321383
14.184000000000001,-0.016987095712077106
14.188,-0.01698584560384499
14.192,-0.016986638941761525
14.196,-0.016989283401483306
14.200000000000001,-0.016984042563125596
14.204,-0.016980773049287762
14.208,-0.016983898319868046
14.212,-0.016983994482039747
14.216000000000001,-0.01697971526539905
14.22,-0.016981301941232117
14.224,-0.016983489630638317
14.228,-0.016991471090889505
14.232000000000001,-0.016993226050523048
14.236,-0.016992480793692366
14.24,-0.01698853814465262
14.244,-0.016986590860675676
14.248000000000001,-0.01698762460402146
14.252,-0.016987744806736087
14.256,-0.016988634306824322
14.26,-0.016992384631520665
14.264000000000001,-0.016991831699033382
14.268,-0.01698596580655962
14.272,-0.01698844198248092
14.276,-0.016985124387557234
14.280000000000001,-0.016985148428100158
14.284,-0.0169867110633903
14.288,-0.0169887064284531
14.292,-0.016988417941937995
14.296000000000001,-0.01698560519841574
14.3,-0.016981422143946743
14.304,-0.016981830833176472
14.308,-0.01698387427932512
14.312000000000001,-0.016980604765487285
14.316,-0.016984403171269476
14.32,-0.01698738419859221
14.324,-0.016984547414527026
14.328000000000001,-0.016982047198062802
14.332,-0.016984210846926074
14.336,-0.016987263995877584
14.34,-0.01699022098265739
14.344,-0.016991927861205083
14.348,-0.016992192307177263
14.352,-0.0169888987527965
14.356,-0.016985533076786963
14.36,-0.01698132598177504
14.364,-0.016983249225209066
14.368,-0.01698317710358029
14.372,-0.016978417076081085
14.376,-0.016976157265046112
14.38,-0.016978921927482515
14.384,-0.016982023157519874
14.388,-0.016981878914262324
14.392,-0.016982047198062802
14.396,-0.01698332134683784
14.4,-0.01698274437380763
14.404,-0.016980965373631165
14.408,-0.016985412874072337
14.412,-0.016985028225385532
14.416,-0.016981422143946743
14.42,-0.016981662549375998
14.424,-0.01698546095515819
14.428,-0.01699113452328855
14.432,-0.016990148861028613
14.436,-0.0169822395224062
14.44,-0.01698300881977981
14.444,-0.016979474859969798
14.448,-0.0169817587115477
14.452,-0.01698240780620668
14.456,-0.01698149426557552
14.46,-0.016985124387557234
14.464,-0.016985388833529413
14.468,-0.01698510034701431
14.472,-0.016983609833352942
14.476,-0.016977479494907
14.48,-0.01697353684586726
14.484,-0.016968728737282206
14.488,-0.01696632468298968
14.492,-0.016968199845337848
14.496,-0.016974209981069164
14.5,-0.016974883116271072
14.504,-0.016977599697621627
14.508000000000001,-0.016977455454364077
14.512,-0.016972551183607323
14.516,-0.01697442634595549
14.52,-0.016977046765134347
14.524000000000001,-0.016976638075904618
14.528,-0.01697404169726869
14.532,-0.016972719467407797
14.536,-0.01697031541311527
14.540000000000001,-0.016971709764604936
14.544,-0.016972647345779024
14.548,-0.01697341664315263
14.552,-0.016971781886233713
14.556000000000001,-0.0169728156295795
14.56,-0.016970916426688402
14.564,-0.01696920954814071
14.568,-0.016970868345602554
14.572000000000001,-0.016967694993936418
14.576,-0.016965218818015118
14.58,-0.01696291092589429
14.584,-0.0169594010066272
14.588000000000001,-0.01695870383088237
14.592,-0.016964064871954704
14.596,-0.016963584061096198
14.6,-0.01696514669638634
14.604000000000001,-0.016971277034832283
14.608,-0.016973440683695558
14.612,-0.016972022291662964
14.616,-0.016974883116271072
14.620000000000001,-0.016976806359705093
14.624,-0.016979787387027826
14.628,-0.01698276841435056
14.632,-0.0169817587115477
14.636000000000001,-0.016980749008744838
14.64,-0.016979643143770276
14.644,-0.016973849372925287
14.648,-0.016973801291839435
14.652000000000001,-0.01697702272459142
14.656,-0.016983537711724166
14.66,-0.016983153063037364
14.664,-0.01697195017003419
14.668000000000001,-0.016968199845337848
14.672,-0.016964834169328313
14.676,-0.01696286284480844
14.68,-0.016962526277207488
14.684000000000001,-0.01695990585802863
14.688,-0.016963560020553273
14.692,-0.016966661250590633
14.696,-0.01696646892624723
14.700000000000001,-0.016964473561184433
14.704,-0.016962309912321158
14.708,-0.01696327153403817
14.712,-0.016963896588154226
14.716000000000001,-0.016964329317926883
14.72,-0.01697017116985772
14.724,-0.016973344521523857
14.728,-0.016970748142887928
14.732000000000001,-0.01696682953439111
14.736,-0.016966949737105736
14.74,-0.01697017116985772
14.744,-0.01697158956189031
14.748000000000001,-0.016971565521347386
14.752,-0.016972430980892697
14.756,-0.01697459462975597
14.76,-0.01697546008930128
14.764000000000001,-0.016975916859616857
14.768,-0.01697815263010891
14.772,-0.016980051833000005
14.776,-0.016977191008391897
14.780000000000001,-0.016965435182901445
14.784,-0.01696144445277585
14.788,-0.016964305277383955
14.792,-0.016970627940173302
14.796000000000001,-0.016969882683342617
14.8,-0.016960627074316392
14.804,-0.01695579492518841
14.808,-0.01695641997930447
14.812000000000001,-0.016957670087536583
14.816,-0.01695541027650161
14.82,-0.01695377551958269
14.824,-0.01695048196520193
14.828000000000001,-0.016952044600492072
14.832,-0.016956804627991276
14.836,-0.016964425480098584
14.84,-0.016972382899806845
14.844000000000001,-0.016974306143240865
14.848,-0.016973608967496032
14.852,-0.016976037062331487
14.856,-0.016977551616535778
14.86,-0.016982167400777428
14.864,-0.01698341750900954
14.868,-0.016986422576875198
14.872,-0.01698692742827663
14.876,-0.01697199825112004
14.88,-0.016968007520994446
14.884,-0.016969642277913366
14.888,-0.01696714206144914
14.892,-0.016966252561360903
14.896,-0.016968945102168533
14.9,-0.016965435182901445
14.904,-0.016961781020376803
14.908,-0.016964906290957087
14.912,-0.016964834169328313
14.916,-0.016965627507244847
14.92,-0.016963752344896676
14.924,-0.01696687761547696
14.928,-0.016964713966613684
14.932,-0.016962670520465038
14.936,-0.016964810128785385
14.94,-0.016966396804618453
14.944,-0.016965675588330696
14.948,-0.016962742642093815
14.952,-0.016963415777295723
14.956,-0.016964353358469807
14.96,-0.016969017223797307
14.964,-0.01696687761547696
14.968,-0.01696464184498491
14.972,-0.01696682953439111
14.976,-0.016967719034479342
14.98,-0.016971565521347386
14.984,-0.01697332048098093
14.988,-0.016972695426864873
14.992,-0.016971301075375207
14.996,-0.016970267332029422
15.0,-0.016971301075375207
15.004,-0.016976253427217813
15.008000000000001,-0.016978441116624013
15.012,-0.0169730079539229
15.016,-0.016961516574404627
15.02,-0.016960627074316392
15.024000000000001,-0.016962838804265516
15.028,-0.016962574358293337
15.032,-0.016962045466348982
15.036,-0.016959449087713054
15.040000000000001,-0.016953919762840244
15.044,-0.016954015925011945
15.048,-0.01695637189821862
15.052,-0.016960603033773464
15.056000000000001,-0.016959208682283802
15.06,-0.016959641412056456
15.064,-0.016965988115388724
15.068,-0.016969738440085067
15.072000000000001,-0.016967550750678868
15.076,-0.01696723822362084
15.08,-0.016970748142887928
15.084,-0.016973152197180454
15.088000000000001,-0.016971421278089833
15.092,-0.016975436048758355
15.096,-0.0169751956433291
15.1,-0.01697108471048888
15.104000000000001,-0.01696610831810335
15.108,-0.01696706993982036
15.112,-0.016965940034302875
15.116,-0.016965242858558043
15.120000000000001,-0.01696413699358348
15.124,-0.016958535547081894
15.128,-0.016958583628167743
15.132,-0.016960771317573942
15.136000000000001,-0.016962574358293337
15.14,-0.01696276668263674
15.144,-0.016961107885174895
15.148,-0.01695916060119795
15.152000000000001,-0.01695815089839509
15.156,-0.016961468493318775
15.16,-0.016961372331147074
15.164,-0.01695834322273849
15.168000000000001,-0.0169614925338617
15.172,-0.016962309912321158
15.176,-0.0169593048444555
15.18,-0.016954376533155822
15.184000000000001,-0.016952934100580307
15.188,-0.01695221288429255
15.192,-0.016952597532979355
15.196,-0.016954713100756778
15.200000000000001,-0.016958968276854548
15.204,-0.016963920628697154
15.208,-0.016963199412409393
15.212,-0.016961684858205102
15.216000000000001,-0.01696017030400081
15.22,-0.016958367263281416
15.224,-0.016957093114506376
15.228,-0.016955338154872834
15.232000000000001,-0.01695870383088237
15.236,-0.016960867479745644
15.24,-0.016963055169151843
15.244,-0.016964497601727357
15.248000000000001,-0.016957597965907806
15.252,-0.016955843006274264
15.256,-0.016958174938938014
15.26,-0.01695194843832037
15.264000000000001,-0.016961540614947552
15.268,-0.016967406507421314
15.272,-0.01697108471048888
15.276,-0.016968271966966625
15.280000000000001,-0.01696093960137442
15.284,-0.016956275736046918
15.288,-0.016960458790515914
15.292,-0.01696555538561607
15.296000000000001,-0.01697118087266058
15.3,-0.0169703394536582
15.304,-0.016965675588330696
15.308,-0.016959184641740874
15.312000000000001,-0.01695656422256202
15.316,-0.016958367263281416
15.32,-0.016960699195945166
15.324,-0.01695942504717013
15.328000000000001,-0.016959449087713054
15.332,-0.01696125212843245
15.336,-0.016960723236488093
15.34,-0.01696043474997299
15.344000000000001,-0.01695815089839509
15.348,-0.016956347857675694
15.352,-0.016957453722650256
15.356,-0.0169591125201121
15.36,-0.01695569876301671
15.364,-0.016952982181666156
15.368,-0.01695459289804215
15.372,-0.016956756546905424
15.376,-0.016959376966084277
15.38,-0.016956444019847396
15.384,-0.016957622006450734
15.388,-0.016957622006450734
15.392,-0.01695363127632514
15.396,-0.016949544384027845
15.4,-0.01695372743849684
15.404,-0.016957862411879986
15.408,-0.016958102817309237
15.412,-0.016952044600492072
15.416,-0.0169476932622226
15.42,-0.016949712667828323
15.424,-0.0169523571275501
15.428,-0.016947356694621645
15.432,-0.01695079449225996
15.436,-0.01695281389786568
15.44,-0.016953006222209084
15.444,-0.0169545448169563
15.448,-0.016953198546552486
15.452,-0.01695079449225996
15.456,-0.016950409843573155
15.46,-0.01695134742474724
15.464,-0.016954616938585076
15.468,-0.016957093114506376
15.472,-0.016956203614418144
15.476,-0.016956900790162974
15.48,-0.01695430441152705
15.484,-0.0169544486547846
15.488,-0.016962742642093815
15.492,-0.01696519477747219
15.496,-0.016959497168798902
15.5,-0.016953751479039766
15.504,-0.016951155100403837
15.508000000000001,-0.01695428037098412
15.512,-0.0169523571275501
15.516,-0.01695545835758746
15.52,-0.016953054303294933
15.524000000000001,-0.016952525411350578
15.528,-0.016952188843749622
15.532,-0.016953102384380785
15.536,-0.016954256330441196
15.540000000000001,-0.016956251695503993
15.544,-0.016958968276854548
15.548,-0.016955386235958683
15.552,-0.016960218385086663
15.556000000000001,-0.016963704263810823
15.56,-0.01696245415557871
15.564,-0.016963584061096198
15.568,-0.016956780587448348
15.572000000000001,-0.016954208249355347
15.576,-0.01694911165425519
15.58,-0.016954665019670925
15.584,-0.016953919762840244
15.588000000000001,-0.01695317450600956
15.592,-0.01695286197895153
15.596,-0.01695531411432991
15.6,-0.01695956929042768
15.604000000000001,-0.016960122222914962
15.608,-0.016956996952334675
15.612,-0.016953006222209084
15.616,-0.016951395505833092
15.620000000000001,-0.016948991451540565
15.624,-0.016954713100756778
15.628,-0.016954737141299702
15.632,-0.01695103489768921
15.636000000000001,-0.01694658739724804
15.64,-0.016940985950746452
15.644,-0.01693988008577189
15.648,-0.016946515275619262
15.652000000000001,-0.016948077910909402
15.656,-0.016950554086830705
15.66,-0.016951539749090642
15.664,-0.016945673856616876
15.668000000000001,-0.016945601734988103
15.672,-0.016944111221326736
15.676,-0.01694834235688158
15.68,-0.016953895722297316
15.684000000000001,-0.01695079449225996
15.688,-0.016946683559419737
15.692,-0.01694646719453341
15.696,-0.01694915973534104
15.700000000000001,-0.01695509774944358
15.704,-0.016954568857499224
15.708,-0.01694658739724804
15.712,-0.016946491235076338
15.716000000000001,-0.016943918896983334
15.72,-0.016945217086301298
15.724,-0.0169430293968951
15.728,-0.016937932801794942
15.732000000000001,-0.016940048369572365
15.736,-0.01694439970784184
15.74,-0.016942236058978564
15.744,-0.01694358232938238
15.748000000000001,-0.016947020127020693
15.752,-0.016948630843396685
15.756,-0.01694860680285376
15.76,-0.016948991451540565
15.764000000000001,-0.016947717302765525
15.768,-0.01695209268157792
15.772,-0.01695108297877506
15.776,-0.016946106586389533
15.780000000000001,-0.016940120491201142
15.784,-0.016935937436732145
15.788,-0.01693221115257873
15.792,-0.016937379869307663
15.796000000000001,-0.016938870382969026
15.8,-0.016939303112741683
15.804,-0.016939807964143114
15.808,-0.016939182910027058
15.812000000000001,-0.016935697031302894
15.816,-0.016933942071669348
15.82,-0.016941418680519106
15.824,-0.01694423142404136
15.828000000000001,-0.016949712667828323
15.832,-0.016954761181842627
15.836,-0.016957165236135153
15.84,-0.01695851150653897
15.844000000000001,-0.01695144358691894
15.848,-0.016947356694621645
15.852,-0.016944423748384764
15.856,-0.016940553220973795
15.860000000000001,-0.01693783663962324
15.864,-0.016940048369572365
15.868,-0.016943341923953126
15.872,-0.016946635478333888
15.876,-0.016947669221679673
15.88,-0.016943846775354557
15.884,-0.016947164370278243
15.888,-0.01695084257334581
15.892,-0.016950914694974586
15.896,-0.01694363041046823
15.9,-0.016940360896630393
15.904,-0.01694423142404136
15.908,-0.01694848660013913
15.912,-0.016955217952158208
15.916,-0.016957117155049304
15.92,-0.0169476932622226
15.924,-0.01693769239636569
15.928,-0.016936850977363305
15.932,-0.01694120231563278
15.936,-0.016944063140240884
15.94,-0.01694555365390225
15.944,-0.016951155100403837
15.948,-0.01695103489768921
15.952,-0.016949135694798115
15.956,-0.01695033772194438
15.96,-0.016948582762310833
15.964,-0.016947549018965048
15.968,-0.016949231856969817
15.972,-0.016952693695151053
15.976,-0.01695372743849684
15.98,-0.01695336683035296
15.984,-0.016954640979128
15.988,-0.016952164803206698
15.992,-0.016951900357234522
15.996,-0.016953655316868065
16.0,-0.016951467627461865
16.004,-0.016948125991995255
16.008,-0.016950866613888733
16.012,-0.016950602167916558
16.016000000000002,-0.01695067428954533
16.02,-0.016945313248473
16.024,-0.016947308613535796
16.028,-0.016951058938232136
16.032,-0.01695372743849684
16.036,-0.016955987249531814
16.04,-0.0169544486547846
16.044,-0.01695336683035296
16.048000000000002,-0.016952140762663773
16.052,-0.016953559154696363
16.056,-0.016953414911438813
16.06,-0.016956011290074742
16.064,-0.016961228087889524
16.068,-0.016958992317397472
16.072,-0.016954929465643104
16.076,-0.016953847641211467
16.080000000000002,-0.016950866613888733
16.084,-0.01694901549208349
16.088,-0.016947933667651852
16.092,-0.016942404342779042
16.096,-0.016940769585860122
16.1,-0.016945024761957896
16.104,-0.01694860680285376
16.108,-0.016951323384204315
16.112000000000002,-0.016949328019141518
16.116,-0.016949688627285395
16.12,-0.016951275303118463
16.124,-0.01695747776319318
16.128,-0.016959641412056456
16.132,-0.016961973344720205
16.136,-0.01696007414182911
16.14,-0.01696317537186647
16.144000000000002,-0.016968464291310027
16.148,-0.016963295574581094
16.152,-0.01695468906021385
16.156,-0.016952741776236905
16.16,-0.016951876316691594
16.164,-0.01695586704681719
16.168,-0.016956444019847396
16.172,-0.01695129934366139
16.176000000000002,-0.016949328019141518
16.18,-0.01695211672212085
16.184,-0.0169523571275501
16.188,-0.016951876316691594
16.192,-0.016949832870542948
16.196,-0.01695067428954533
16.2,-0.016950554086830705
16.204,-0.016945241126844222
16.208000000000002,-0.016944736275442792
16.212,-0.016949592465113697
16.216,-0.016957213317221005
16.22,-0.016959184641740874
16.224,-0.016953919762840244
16.228,-0.016956395938761543
16.232,-0.01695848746599604
16.236,-0.01695569876301671
16.240000000000002,-0.01695581896573134
16.244,-0.016956179573875216
